0
0
0
0
0
0
0
0
0
0
0
0
0
0
0
0
0
0
0
0
0
0
0
0
0
0
0
0
0
0
0
0
0
0
0
0
0
0
0
0
0
0
0
0
78
239
366
479
620
803
1020
1218
1325
1345
1309
1262
1263
1334
1461
1611
1693
1712
1680
1647
1641
1712
1831
1987
2121
2166
2119
2032
1971
1997
2096
2233
2380
2467
2467
2399
2327
2317
2379
2503
2639
2720
2723
2655
2559
2506
2523
2630
2761
2859
2880
2815
2705
2624
2605
2671
2783
2879
2916
2881
2783
2668
2611
2643
2749
2854
2905
2877
2779
2673
2607
2599
2670
2779
2864
2874
2813
2705
2624
2613
2677
2789
2894
2941
2893
2783
2685
2645
2674
2767
2870
2945
2944
2865
2754
2693
2713
2805
2930
3018
3018
2944
2829
2738
2722
2787
2898
3008
3053
3002
2887
2773
2739
2795
2917
3043
3097
3048
2949
2830
2759
2779
2880
3002
3091
3089
3008
2908
2827
2800
2844
2943
3040
3088
3039
2934
2839
2800
2835
2930
3034
3082
3040
2934
2821
2752
2773
2879
3005
3088
3083
2978
2843
2755
2751
2819
2935
3037
3066
3002
2887
2770
2713
2759
2877
2992
3043
3004
2893
2758
2673
2679
2755
2873
2957
2947
2859
2721
2613
2582
2647
2768
2881
2925
2894
2799
2687
2633
2661
2751
2841
2885
2861
2767
2654
2559
2581
2661
2757
2827
2826
2739
2625
2541
2512
2555
2655
2757
2801
2753
2649
2530
2487
2524
2625
2745
2807
2789
2703
2587
2515
2533
2615
2718
2799
2799
2717
2601
2496
2462
2499
2589
2659
2663
2599
2473
2349
2289
2315
2415
2533
2591
2553
2443
2295
2202
2197
2285
2411
2499
2518
2450
2339
2242
2214
2262
2354
2447
2480
2435
2327
2224
2169
2197
2278
2382
2454
2433
2341
2213
2128
2112
2172
2258
2306
2288
2204
2101
2034
2089
2251
2491
2768
2991
3152
3239
3323
3435
3611
3823
3955
3915
3655
3271
2879
2539
2327
2254
2249
2256
2214
2112
1982
1891
1883
1958
2076
2163
2183
2134
2027
1923
1886
1934
2028
2139
2191
2164
2054
1915
1825
1825
1906
2021
2115
2113
2037
1925
1845
1837
1921
2047
2171
2210
2145
2007
1875
1825
1871
1986
2109
2161
2124
2019
1913
1843
1867
1954
2070
2151
2141
2058
1942
1851
1824
1890
2010
2119
2146
2106
2000
1901
1844
1869
1957
2064
2112
2096
2007
1904
1840
1849
1939
2075
2183
2191
2106
1967
1860
1837
1904
2018
2142
2194
2158
2063
1951
1903
1945
2041
2147
2193
2163
2064
1947
1893
1925
2027
2155
2239
2231
2150
2029
1958
1959
2032
2154
2244
2277
2221
2112
2009
1986
2032
2142
2262
2327
2288
2171
2037
1968
1975
2077
2192
2279
2279
2183
2047
1941
1904
1934
2026
2110
2118
2043
1907
1783
1727
1742
1827
1927
1981
1941
1831
1707
1619
1618
1701
1817
1900
1903
1807
1680
1568
1535
1614
1738
1835
1856
1794
1691
1597
1555
1610
1712
1815
1871
1834
1715
1602
1523
1557
1663
1772
1872
1893
1813
1689
1585
1567
1634
1755
1845
1871
1815
1708
1605
1563
1600
1706
1823
1873
1840
1739
1628
1575
1599
1690
1808
1886
1879
1797
1679
1584
1567
1626
1743
1847
1882
1841
1744
1637
1591
1620
1730
1844
1903
1872
1771
1646
1570
1586
1680
1791
1863
1867
1787
1675
1586
1575
1648
1770
1861
1877
1813
1702
1602
1573
1623
1744
1863
1935
1920
1826
1711
1647
1659
1744
1854
1929
1919
1835
1711
1591
1562
1618
1722
1822
1834
1759
1648
1535
1490
1520
1629
1746
1811
1795
1702
1590
1519
1522
1607
1713
1793
1798
1728
1611
1515
1503
1583
1687
1801
1834
1774
1650
1535
1487
1527
1645
1771
1830
1803
1702
1581
1489
1488
1569
1663
1730
1727
1663
1605
1599
1712
1941
2254
2559
2815
2956
2988
2959
2950
2966
2980
2960
2819
2547
2210
1872
1626
1514
1515
1582
1630
1626
1553
1453
1376
1370
1456
1585
1683
1713
1669
1535
1423
1389
1439
1573
1685
1747
1725
1622
1494
1425
1445
1535
1662
1749
1754
1680
1552
1451
1433
1507
1630
1731
1760
1715
1623
1523
1479
1522
1637
1742
1791
1757
1667
1559
1490
1523
1627
1744
1824
1823
1744
1636
1535
1507
1561
1671
1783
1826
1777
1677
1569
1529
1577
1665
1765
1809
1771
1679
1582
1525
1535
1641
1766
1850
1851
1763
1645
1558
1558
1627
1753
1859
1903
1845
1742
1625
1573
1607
1717
1839
1895
1867
1781
1674
1632
1667
1771
1886
1972
1969
1879
1758
1673
1666
1744
1861
1957
1986
1940
1841
1735
1702
1762
1886
2011
2074
2023
1914
1777
1680
1678
1753
1855
1919
1907
1814
1681
1571
1523
1573
1667
1769
1786
1716
1585
1454
1392
1424
1523
1637
1684
1654
1559
1436
1359
1374
1453
1559
1635
1628
1535
1423
1333
1337
1410
1535
1658
1701
1641
1503
1385
1350
1397
1503
1614
1652
1614
1526
1430
1373
1396
1487
1612
1694
1696
1616
1502
1426
1426
1502
1621
1726
1744
1689
1577
1456
1408
1454
1565
1676
1737
1716
1631
1520
1469
1488
1603
1744
1839
1830
1741
1618
1510
1483
1535
1667
1776
1817
1783
1681
1584
1554
1615
1728
1845
1887
1839
1716
1593
1513
1532
1632
1754
1843
1856
1782
1668
1587
1584
1654
1774
1872
1902
1836
1725
1615
1567
1604
1709
1842
1931
1935
1858
1758
1703
1728
1833
1936
2011
2000
1894
1750
1636
1616
1674
1783
1873
1887
1809
1710
1601
1555
1584
1681
1794
1843
1822
1733
1619
1552
1571
1659
1777
1869
1869
1781
1658
1564
1553
1619
1739
1850
1878
1825
1712
1602
1563
1600
1699
1813
1878
1856
1758
1647
1572
1571
1648
1749
1795
1771
1670
1535
1479
1515
1669
1895
2135
2331
2476
2557
2659
2797
2982
3216
3414
3477
3358
3089
2768
2453
2227
2101
2038
1984
1872
1709
1535
1425
1415
1502
1648
1761
1793
1739
1627
1518
1486
1523
1631
1747
1809
1776
1663
1531
1481
1518
1631
1761
1840
1837
1747
1632
1529
1499
1579
1702
1808
1837
1786
1680
1587
1562
1629
1744
1865
1914
1877
1773
1642
1562
1578
1671
1791
1875
1885
1808
1709
1626
1616
1681
1777
1860
1885
1825
1713
1610
1568
1619
1738
1856
1918
1899
1799
1671
1604
1618
1722
1840
1922
1919
1837
1727
1641
1627
1696
1825
1949
1989
1941
1835
1725
1675
1703
1808
1922
1978
1952
1856
1750
1696
1731
1831
1952
2032
2025
1945
1837
1761
1767
1838
1946
2063
2096
2039
1919
1801
1755
1795
1902
2020
2093
2055
1950
1857
1809
1820
1887
1991
2069
2073
1984
1845
1723
1675
1712
1795
1872
1874
1808
1682
1571
1519
1558
1670
1781
1815
1763
1648
1509
1435
1452
1535
1658
1747
1745
1653
1525
1426
1417
1495
1616
1718
1730
1666
1559
1452
1408
1455
1583
1702
1767
1743
1646
1519
1439
1453
1558
1694
1785
1786
1709
1595
1505
1487
1535
1657
1755
1785
1742
1635
1522
1479
1531
1647
1754
1809
1774
1680
1579
1518
1534
1629
1751
1830
1825
1739
1631
1535
1530
1603
1727
1827
1854
1783
1650
1519
1455
1494
1615
1728
1790
1772
1674
1555
1477
1482
1574
1699
1787
1789
1711
1595
1503
1490
1557
1666
1758
1776
1705
1591
1473
1427
1462
1582
1693
1744
1726
1630
1520
1468
1487
1585
1698
1790
1792
1717
1611
1517
1502
1572
1685
1775
1777
1695
1535
1422
1363
1390
1472
1569
1600
1535
1411
1265
1162
1147
1231
1357
1435
1431
1329
1153
960
832
811
847
897
898
818
676
495
362
329
391
496
584
577
468
322
197
137
171
270
371
400
336
226
102
32
48
123
217
240
182
51
0
0
0
0
215
432
592
688
755
845
1015
1274
1535
1751
1811
1712
1488
1214
932
723
622
544
445
313
119
0
0
0
0
0
86
109
48
0
0
0
0
80
211
261
215
98
0
0
0
98
251
349
338
243
111
32
55
176
336
453
479
421
289
174
151
240
384
529
578
526
408
288
252
304
432
576
667
656
572
445
367
384
511
685
814
848
773
637
529
491
599
768
913
969
916
798
674
624
678
815
966
1074
1085
1002
894
823
846
953
1110
1232
1254
1154
1005
898
897
1018
1191
1338
1398
1353
1247
1134
1088
1139
1289
1456
1568
1572
1475
1343
1263
1280
1402
1566
1690
1721
1648
1520
1432
1422
1499
1651
1792
1861
1822
1710
1584
1533
1603
1736
1873
1937
1903
1792
1665
1593
1591
1680
1801
1893
1889
1802
1650
1517
1473
1535
1680
1794
1835
1778
1663
1533
1484
1553
1706
1855
1920
1887
1801
1666
1584
1600
1713
1858
1958
1979
1909
1788
1694
1684
1755
1879
1989
2015
1955
1834
1722
1683
1748
1895
2063
2147
2125
2005
1869
1781
1798
1919
2079
2202
2217
2135
1989
1881
1859
1943
2110
2249
2305
2253
2128
1989
1921
1956
2082
2224
2317
2301
2217
2107
2034
2034
2143
2288
2401
2426
2335
2187
2086
2071
2165
2320
2448
2483
2431
2290
2155
2095
2145
2291
2462
2555
2541
2448
2321
2239
2240
2332
2463
2559
2580
2501
2371
2256
2238
2339
2497
2646
2691
2638
2507
2372
2310
2353
2476
2611
2685
2661
2544
2402
2325
2365
2485
2640
2750
2768
2677
2522
2402
2361
2438
2587
2723
2769
2709
2582
2457
2416
2468
2605
2736
2821
2801
2711
2598
2519
2547
2674
2835
2947
2948
2842
2682
2559
2543
2624
2773
2917
2971
2909
2768
2618
2543
2559
2673
2800
2863
2816
2689
2534
2439
2448
2559
2718
2832
2846
2759
2634
2519
2495
2559
2703
2822
2864
2800
2667
2526
2471
2515
2645
2772
2854
2836
2733
2599
2517
2540
2653
2781
2871
2864
2743
2559
2427
2374
2445
2591
2725
2807
2800
2749
2729
2825
3066
3434
3930
4095
4095
4095
4095
4095
4095
4095
4095
4095
3709
3280
2891
2606
2448
2432
2522
2624
2642
2559
2439
2304
2242
2285
2410
2557
2651
2633
2506
2354
2257
2255
2351
2490
2608
2625
2528
2384
2279
2249
2320
2458
2589
2624
2551
2416
2272
2213
2283
2419
2559
2638
2597
2469
2320
2221
2223
2331
2480
2591
2591
2486
2345
2229
2204
2273
2404
2529
2559
2512
2391
2258
2192
2223
2331
2455
2521
2493
2368
2238
2166
2192
2291
2416
2499
2495
2403
2269
2161
2141
2218
2358
2497
2549
2489
2352
2219
2171
2224
2352
2498
2559
2545
2423
2263
2178
2193
2303
2453
2559
2559
2485
2354
2242
2225
2313
2461
2608
2653
2587
2433
2304
2256
2310
2434
2559
2663
2642
2522
2384
2304
2320
2434
2579
2670
2654
2542
2389
2275
2248
2303
2417
2526
2551
2470
2306
2147
2065
2098
2222
2351
2402
2343
2210
2064
1967
1967
2064
2192
2293
2289
2183
2018
1886
1847
1931
2076
2193
2240
2192
2073
1939
1873
1911
2035
2167
2223
2177
2045
1895
1813
1835
1952
2103
2204
2211
2121
1968
1865
1834
1889
2003
2125
2165
2120
1991
1873
1835
1880
1995
2119
2179
2128
2002
1872
1791
1805
1920
2071
2170
2167
2066
1918
1806
1779
1866
2003
2139
2182
2128
1991
1867
1811
1868
1990
2126
2189
2160
2063
1926
1843
1847
1936
2066
2160
2164
2075
1925
1808
1792
1882
2029
2164
2211
2155
2019
1884
1818
1861
1990
2134
2199
2158
2035
1909
1831
1854
1958
2112
2208
2219
2117
1997
1888
1856
1921
2064
2180
2218
2149
2003
1863
1805
1854
1989
2141
2227
2195
2080
1920
1803
1806
1904
2073
2189
2192
2098
1959
1851
1818
1901
2045
2181
2234
2190
2070
1954
1911
1985
2150
2300
2350
2294
2140
1968
1873
1887
1998
2147
2241
2231
2130
1979
1847
1821
1899
2027
2154
2187
2116
1975
1855
1799
1851
1977
2107
2173
2128
2017
1887
1803
1821
1931
2085
2191
2208
2111
1957
1854
1837
1916
2037
2153
2188
2119
1969
1840
1790
1855
1989
2127
2181
2128
1989
1811
1715
1729
1851
2035
2205
2288
2294
2301
2367
2530
2816
3167
3493
3697
3689
3513
3301
3117
2978
2859
2727
2559
2337
2066
1815
1665
1653
1764
1920
2035
2058
1959
1817
1707
1681
1771
1903
2019
2039
1966
1824
1698
1657
1715
1850
1968
2015
1969
1840
1703
1631
1670
1803
1948
2037
2035
1920
1754
1627
1613
1699
1839
1963
2007
1938
1801
1651
1594
1664
1829
1979
2039
2001
1875
1738
1653
1670
1769
1905
2004
2017
1919
1783
1690
1667
1744
1876
2000
2032
1970
1846
1719
1669
1719
1840
1977
2047
2008
1895
1755
1680
1712
1808
1941
2035
2035
1947
1822
1711
1689
1776
1917
2032
2076
2007
1885
1773
1744
1824
1970
2115
2186
2149
2026
1873
1791
1806
1923
2086
2199
2224
2141
2005
1903
1877
1954
2091
2199
2229
2151
2007
1886
1851
1904
2032
2163
2224
2177
2038
1874
1779
1781
1867
1987
2061
2019
1903
1741
1618
1584
1649
1775
1874
1907
1840
1695
1535
1473
1517
1654
1808
1872
1837
1708
1535
1457
1479
1587
1739
1831
1835
1743
1590
1463
1439
1523
1674
1797
1842
1779
1642
1511
1455
1505
1637
1765
1840
1821
1699
1535
1472
1503
1626
1785
1890
1887
1779
1638
1534
1527
1619
1753
1869
1901
1822
1679
1553
1518
1590
1719
1867
1942
1913
1809
1674
1599
1615
1728
1872
1967
1971
1867
1722
1612
1589
1671
1808
1939
1993
1936
1806
1674
1626
1691
1819
1950
2004
1963
1854
1727
1659
1669
1782
1935
2019
2006
1913
1771
1651
1620
1697
1837
1946
1968
1925
1808
1679
1623
1680
1829
1984
2060
2012
1886
1734
1648
1669
1778
1922
2029
2031
1935
1787
1676
1649
1733
1879
2001
2032
1967
1837
1697
1633
1680
1809
1955
2023
1997
1873
1730
1651
1675
1798
1942
2036
2037
1938
1805
1716
1718
1810
1939
2063
2098
2032
1904
1773
1703
1746
1869
1986
2032
1975
1853
1714
1628
1625
1725
1870
1955
1941
1847
1712
1605
1589
1681
1825
1936
1965
1888
1745
1616
1562
1618
1761
1905
1978
1957
1833
1676
1596
1613
1719
1855
1954
1951
1844
1693
1584
1571
1647
1770
1874
1899
1812
1664
1516
1475
1573
1770
2006
2213
2352
2423
2485
2602
2786
3041
3302
3455
3419
3216
2915
2606
2339
2174
2098
2047
1947
1799
1603
1433
1369
1424
1572
1716
1777
1731
1619
1487
1409
1429
1535
1681
1766
1746
1635
1488
1383
1375
1456
1604
1729
1761
1687
1557
1427
1378
1439
1587
1722
1775
1727
1597
1456
1391
1431
1555
1707
1799
1793
1679
1526
1424
1424
1520
1670
1792
1830
1761
1637
1512
1474
1535
1664
1787
1827
1775
1651
1519
1456
1491
1633
1787
1870
1862
1759
1616
1505
1482
1567
1712
1847
1890
1835
1710
1600
1574
1645
1780
1911
1969
1919
1790
1651
1578
1603
1731
1877
1983
1984
1899
1767
1664
1666
1751
1883
2000
2032
1968
1855
1755
1724
1791
1923
2064
2128
2080
1947
1812
1746
1783
1904
2066
2178
2178
2054
1883
1776
1773
1863
1999
2105
2109
2011
1866
1731
1670
1714
1835
1945
1989
1927
1775
1607
1498
1493
1605
1744
1828
1810
1708
1573
1469
1454
1535
1662
1771
1795
1735
1599
1456
1393
1443
1580
1721
1793
1747
1626
1478
1402
1431
1567
1719
1807
1785
1663
1520
1421
1411
1506
1677
1804
1825
1741
1583
1435
1383
1446
1589
1728
1791
1765
1658
1520
1444
1456
1569
1712
1792
1776
1678
1532
1446
1445
1535
1677
1795
1814
1743
1626
1503
1470
1535
1691
1823
1873
1811
1664
1520
1452
1477
1614
1763
1851
1841
1727
1584
1483
1477
1570
1707
1818
1854
1782
1636
1503
1473
1535
1680
1831
1894
1856
1738
1585
1507
1535
1651
1790
1878
1873
1770
1611
1499
1488
1591
1737
1856
1894
1816
1681
1565
1530
1595
1722
1844
1881
1823
1702
1569
1488
1521
1645
1791
1889
1879
1774
1625
1509
1491
1597
1744
1856
1888
1824
1699
1582
1523
1597
1730
1859
1914
1857
1726
1583
1514
1535
1663
1803
1904
1903
1797
1654
1535
1521
1618
1774
1915
1958
1889
1745
1606
1553
1600
1711
1826
1885
1841
1723
1578
1506
1535
1661
1808
1899
1886
1777
1633
1534
1535
1643
1783
1897
1922
1847
1700
1569
1516
1595
1754
1907
1968
1920
1785
1663
1616
1669
1805
1951
2026
2005
1892
1747
1648
1631
1726
1863
1971
1983
1895
1771
1653
1610
1650
1765
1874
1922
1872
1741
1601
1511
1535
1670
1826
1911
1904
1808
1681
1599
1583
1647
1782
1895
1934
1855
1713
1584
1521
1581
1726
1865
1935
1901
1773
1633
1555
1581
1681
1830
1936
1927
1819
1649
1518
1486
1563
1692
1815
1879
1872
1811
1783
1856
2058
2352
2676
2934
3086
3104
3083
3091
3152
3220
3251
3153
2894
2533
2160
1861
1694
1678
1742
1801
1791
1703
1578
1469
1450
1511
1646
1770
1819
1776
1648
1519
1457
1492
1629
1782
1872
1865
1759
1604
1491
1484
1585
1742
1857
1874
1787
1659
1553
1535
1616
1735
1845
1894
1845
1729
1597
1523
1565
1697
1833
1922
1936
1865
1733
1641
1628
1710
1835
1931
1959
1885
1743
1629
1587
1657
1794
1936
1993
1941
1810
1680
1620
1659
1791
1939
2033
2025
1919
1776
1679
1662
1749
1904
2032
2081
2000
1853
1732
1694
1762
1894
2032
2096
2061
1949
1823
1751
1767
1890
2047
2143
2135
2032
1903
1808
1800
1904
2053
2176
2206
2135
2021
1911
1872
1952
2097
2229
2289
2239
2104
1950
1870
1909
2035
2192
2294
2293
2181
2032
1923
1903
1977
2101
2198
2202
2103
1947
1818
1776
1831
1938
2041
2090
2032
1897
1744
1654
1666
1773
1892
1969
1948
1835
1679
1565
1559
1660
1819
1947
1963
1862
1704
1563
1522
1611
1763
1891
1936
1879
1759
1632
1562
1587
1707
1846
1919
1883
1745
1600
1507
1519
1635
1787
1899
1923
1844
1710
1594
1561
1625
1750
1872
1918
1866
1733
1603
1533
1568
1678
1819
1913
1901
1782
1632
1532
1535
1642
1785
1887
1886
1810
1695
1581
1535
1611
1742
1871
1919
1872
1770
1649
1586
1619
1717
1839
1904
1887
1787
1648
1535
1554
1667
1825
1943
1968
1887
1749
1630
1590
1648
1771
1883
1927
1874
1745
1622
1576
1615
1727
1851
1935
1923
1829
1690
1603
1617
1719
1846
1953
1971
1883
1744
1635
1612
1680
1810
1937
1987
1945
1826
1670
1601
1647
1770
1901
1986
1968
1859
1717
1633
1633
1721
1859
1969
1983
1888
1751
1654
1645
1731
1862
1979
2015
1961
1823
1680
1614
1655
1780
1925
2007
1997
1891
1745
1647
1635
1739
1894
2004
2027
1937
1790
1659
1621
1705
1847
1985
2047
1988
1857
1717
1642
1661
1779
1923
2032
2023
1921
1790
1698
1685
1791
1937
2043
2058
1962
1819
1707
1661
1721
1856
1983
2039
1998
1872
1742
1669
1710
1838
1983
2069
2061
1955
1815
1727
1718
1799
1931
2032
2064
1984
1851
1725
1695
1767
1917
2053
2110
2064
1944
1821
1760
1809
1937
2080
2169
2151
2034
1883
1776
1757
1850
1997
2103
2128
2030
1880
1744
1682
1732
1863
2001
2068
2018
1895
1750
1680
1717
1833
1963
2032
2007
1898
1746
1646
1645
1747
1901
2002
2022
1937
1808
1680
1644
1708
1838
1960
1999
1938
1809
1679
1629
1679
1805
1941
2032
2013
1899
1743
1633
1607
1680
1808
1915
1955
1936
1904
1920
2030
2272
2591
2922
3171
3285
3279
3223
3201
3201
3219
3211
3058
2773
2417
2066
1791
1651
1658
1750
1849
1861
1776
1637
1518
1472
1535
1671
1804
1857
1801
1665
1522
1463
1507
1644
1777
1855
1830
1712
1573
1476
1488
1600
1753
1855
1871
1788
1662
1558
1535
1631
1774
1904
1940
1863
1723
1587
1525
1575
1716
1875
1969
1954
1842
1685
1584
1591
1705
1856
1962
1969
1887
1757
1651
1618
1695
1843
1974
2016
1951
1829
1691
1631
1671
1796
1933
2017
1986
1863
1739
1663
1670
1758
1895
2000
2032
1964
1840
1737
1715
1779
1903
2006
2033
1981
1866
1749
1709
1774
1919
2058
2127
2096
1983
1847
1776
1793
1899
2043
2158
2181
2106
1961
1846
1813
1891
2038
2189
2250
2192
2067
1933
1865
1904
2031
2179
2256
2240
2128
1983
1885
1881
1963
2090
2171
2164
2064
1915
1778
1742
1808
1931
2023
2034
1958
1790
1641
1566
1607
1724
1855
1917
1872
1751
1623
1520
1514
1603
1747
1845
1859
1770
1618
1495
1470
1553
1701
1834
1865
1805
1681
1557
1495
1535
1665
1805
1883
1859
1736
1597
1516
1535
1648
1787
1879
1902
1831
1705
1594
1552
1622
1776
1905
1955
1904
1778
1633
1577
1619
1755
1907
1983
1948
1839
1695
1603
1611
1712
1847
1947
1963
1881
1749
1648
1642
1719
1847
1965
2000
1953
1823
1685
1623
1666
1783
1915
1984
1969
1867
1734
1654
1664
1761
1892
1991
2006
1925
1789
1681
1659
1731
1872
2007
2074
2015
1883
1751
1685
1722
1846
1995
2066
2032
1913
1767
1675
1682
1777
1915
2022
2033
1954
1819
1713
1667
1730
1865
1989
2061
2001
1874
1743
1676
1725
1856
1984
2054
2022
1910
1783
1699
1717
1825
1973
2074
2067
1967
1820
1711
1689
1775
1898
2001
2043
1994
1863
1733
1680
1735
1863
1990
2064
2032
1913
1775
1691
1698
1808
1948
2047
2059
1961
1813
1701
1671
1745
1878
2018
2080
2029
1885
1729
1652
1681
1807
1950
2019
2006
1910
1792
1712
1714
1811
1943
2042
2058
1961
1799
1685
1650
1738
1878
2000
2022
1942
1808
1702
1665
1729
1858
1983
2040
2034
1957
1830
1739
1765
1895
2033
2122
2118
2029
1904
1786
1761
1822
1943
2030
2040
1949
1805
1664
1615
1659
1781
1921
1999
1978
1859
1710
1603
1604
1712
1859
1967
1987
1902
1744
1615
1581
1664
1818
1957
2007
1957
1825
1689
1635
1685
1805
1930
1999
1971
1861
1713
1616
1615
1699
1823
1893
1883
1807
1707
1664
1743
1940
2231
2526
2763
2906
2964
2970
3019
3136
3264
3344
3290
3051
2675
2286
1984
1828
1812
1859
1903
1872
1753
1609
1494
1472
1563
1711
1830
1859
1792
1666
1535
1495
1535
1650
1764
1840
1823
1722
1595
1490
1488
1610
1774
1873
1887
1792
1657
1552
1523
1601
1735
1856
1887
1835
1711
1599
1553
1601
1730
1883
1961
1920
1803
1664
1596
1627
1731
1863
1957
1953
1859
1709
1603
1599
1680
1827
1959
1995
1920
1795
1675
1619
1666
1791
1910
1983
1959
1847
1713
1644
1672
1786
1929
2021
2029
1934
1808
1691
1669
1757
1895
2002
2043
1997
1878
1755
1714
1776
1916
2066
2137
2105
1983
1839
1756
1779
1887
2036
2151
2167
2096
1968
1858
1841
1935
2086
2215
2256
2203
2064
1933
1874
1935
2055
2173
2231
2207
2107
1984
1921
1933
2023
2160
2231
2218
2109
1949
1822
1783
1845
1959
2059
2082
1993
1840
1693
1645
1687
1811
1936
1971
1903
1746
1594
1500
1495
1597
1733
1851
1866
1771
1633
1529
1519
1614
1750
1849
1858
1776
1647
1504
1455
1526
1673
1809
1872
1839
1721
1579
1489
1511
1631
1779
1882
1877
1778
1630
1517
1523
1640
1783
1904
1927
1850
1726
1598
1535
1595
1730
1872
1939
1906
1808
1680
1600
1616
1722
1871
1973
1974
1875
1730
1603
1584
1675
1819
1953
2013
1940
1819
1679
1614
1648
1781
1930
2011
1991
1872
1723
1642
1650
1765
1899
1991
2000
1909
1771
1659
1642
1727
1861
1977
2013
1943
1805
1665
1617
1678
1830
1984
2064
2032
1899
1738
1651
1663
1772
1917
2018
2017
1930
1803
1707
1694
1772
1893
2000
2035
1971
1860
1743
1682
1727
1861
1984
2055
2013
1899
1758
1680
1703
1817
1966
2069
2077
1991
1840
1711
1653
1698
1825
1954
2004
1949
1813
1696
1665
1731
1858
1991
2057
2015
1897
1770
1712
1747
1869
2025
2129
2128
2023
1877
1755
1732
1815
1957
2076
2107
2032
1882
1740
1660
1696
1803
1924
1985
1938
1829
1699
1617
1637
1742
1859
1931
1922
1829
1712
1617
1616
1699
1827
1947
1989
1913
1775
1648
1591
1648
1776
1917
1984
1959
1839
1702
1618
1629
1727
1845
1938
1943
1839
1677
1535
1494
1594
1761
1931
2032
2067
2063
2096
2224
2475
2800
3118
3318
3363
3267
3099
2938
2819
2717
2618
2466
2255
1971
1699
1495
1424
1502
1661
1795
1855
1806
1678
1535
1472
1520
1651
1786
1845
1805
1689
1557
1472
1481
1590
1729
1819
1826
1731
1605
1498
1488
1598
1744
1870
1904
1829
1693
1558
1500
1579
1728
1881
1958
1909
1755
1607
1511
1535
1649
1792
1882
1893
1806
1667
1558
1535
1626
1773
1894
1936
1873
1744
1616
1568
1625
1761
1914
1975
1935
1807
1673
1598
1616
1735
1886
1985
1986
1881
1721
1609
1610
1729
1894
2013
2045
1968
1834
1701
1653
1715
1855
1994
2081
2046
1947
1835
1756
1759
1857
1991
2089
2101
2021
1899
1803
1793
1893
2054
2177
2206
2131
1985
1857
1815
1893
2046
2197
2257
2200
2074
1955
1918
1951
2064
2196
2271
2244
2128
1957
1833
1802
1883
2014
2126
2133
2032
1873
1733
1667
1709
1815
1917
1958
1897
1754
1600
1515
1530
1641
1776
1856
1851
1746
1615
1501
1482
1570
1710
1826
1847
1770
1633
1515
1469
1520
1655
1776
1827
1787
1680
1535
1459
1481
1587
1722
1809
1811
1728
1586
1472
1462
1535
1686
1813
1844
1776
1650
1527
1488
1535
1680
1821
1882
1844
1731
1600
1507
1531
1651
1798
1894
1897
1799
1665
1564
1562
1657
1805
1919
1939
1867
1728
1606
1567
1633
1763
1904
1977
1951
1853
1725
1637
1651
1760
1901
2005
2009
1901
1760
1664
1661
1745
1909
2043
2087
1991
1838
1707
1664
1743
1887
2033
2102
2058
1936
1803
1726
1749
1872
2017
2125
2128
2022
1872
1773
1759
1855
2000
2112
2133
2047
1898
1775
1739
1805
1943
2087
2154
2122
2013
1875
1790
1811
1921
2066
2173
2171
2064
1918
1815
1814
1909
2055
2177
2192
2107
1954
1831
1797
1873
2011
2145
2214
2168
2038
1899
1799
1832
1947
2109
2190
2173
2064
1909
1808
1797
1903
2047
2160
2176
2096
1953
1826
1789
1853
1989
2151
2226
2178
2042
1904
1851
1893
2009
2152
2239
2227
2126
1980
1878
1863
1951
2090
2191
2192
2095
1929
1786
1728
1795
1937
2069
2113
2071
1943
1808
1727
1755
1879
2035
2135
2127
2005
1849
1738
1729
1808
1941
2045
2071
2000
1874
1767
1717
1778
1916
2045
2096
2046
1926
1795
1728
1760
1867
1983
2043
2018
1909
1787
1732
1791
1975
2247
2503
2695
2800
2844
2896
3008
3197
3439
3642
3664
3456
3123
2745
2416
2221
2147
2155
2145
2075
1925
1749
1628
1600
1678
1818
1931
1963
1898
1774
1669
1653
1723
1858
1968
2015
1965
1835
1698
1643
1692
1820
1967
2071
2069
1955
1796
1680
1669
1768
1920
2062
2102
2021
1890
1766
1723
1779
1918
2037
2097
2061
1946
1835
1771
1808
1930
2071
2154
2134
2032
1891
1801
1807
1890
2041
2157
2185
2112
1981
1870
1840
1907
2034
2161
2215
2173
2046
1903
1831
1872
2002
2143
2201
2201
2117
1988
1903
1902
1997
2140
2256
2288
2219
2089
1961
1915
1968
2101
2236
2294
2246
2117
1987
1934
1983
2113
2266
2368
2384
2290
2155
2058
2032
2127
2266
2387
2435
2371
2242
2115
2055
2099
2223
2353
2411
2368
2247
2128
2064
2094
2205
2347
2430
2396
2286
2139
2018
1991
2053
2175
2258
2262
2170
2011
1867
1793
1838
1955
2073
2119
2059
1909
1758
1675
1695
1793
1917
1984
1968
1866
1735
1641
1630
1712
1854
1964
1984
1899
1743
1621
1586
1651
1781
1911
1975
1920
1777
1630
1535
1574
1682
1823
1919
1906
1796
1652
1557
1557
1652
1796
1917
1936
1863
1723
1584
1523
1586
1711
1839
1887
1834
1704
1557
1478
1520
1654
1806
1894
1882
1771
1621
1511
1507
1612
1749
1866
1888
1815
1680
1569
1532
1610
1738
1861
1907
1847
1711
1575
1506
1535
1667
1819
1906
1897
1806
1671
1562
1535
1633
1771
1872
1889
1797
1649
1522
1490
1559
1693
1834
1896
1839
1711
1555
1467
1501
1625
1776
1857
1851
1745
1609
1508
1509
1618
1759
1869
1900
1828
1689
1563
1504
1535
1661
1782
1845
1814
1713
1602
1535
1571
1669
1791
1863
1840
1727
1588
1493
1483
1576
1719
1840
1855
1766
1620
1494
1471
1552
1694
1833
1899
1857
1740
1600
1510
1526
1627
1758
1840
1821
1714
1573
1481
1485
1600
1744
1866
1895
1829
1701
1595
1575
1648
1810
1968
2021
1962
1819
1659
1573
1584
1685
1824
1934
1934
1825
1664
1535
1526
1615
1744
1847
1869
1781
1634
1488
1438
1500
1647
1787
1853
1812
1697
1558
1473
1489
1617
1767
1848
1818
1706
1554
1449
1458
1581
1727
1838
1854
1767
1626
1503
1467
1535
1683
1796
1827
1734
1564
1402
1330
1379
1535
1767
1966
2078
2126
2147
2226
2404
2682
3002
3290
3429
3362
3150
2890
2656
2480
2352
2224
2074
1869
1620
1407
1295
1309
1424
1579
1667
1653
1535
1392
1295
1296
1402
1535
1652
1664
1582
1437
1325
1290
1360
1492
1638
1691
1643
1506
1377
1330
1361
1478
1631
1725
1703
1596
1459
1385
1392
1493
1659
1781
1802
1711
1562
1428
1377
1437
1586
1727
1797
1756
1644
1507
1446
1489
1622
1778
1849
1809
1697
1555
1463
1466
1571
1728
1846
1885
1825
1685
1557
1506
1586
1731
1883
1962
1921
1797
1664
1601
1647
1776
1925
2022
2029
1931
1798
1702
1716
1831
1994
2129
2157
2074
1936
1822
1795
1871
2014
2151
2208
2168
2059
1931
1878
1929
2064
2204
2289
2278
2171
2034
1966
1985
2105
2258
2367
2374
2277
2124
1999
1957
2026
2171
2306
2345
2268
2115
1953
1866
1893
2017
2155
2224
2182
2047
1871
1737
1705
1778
1909
2001
2015
1921
1766
1616
1557
1616
1750
1863
1905
1847
1725
1575
1490
1535
1686
1847
1936
1920
1808
1651
1535
1534
1631
1783
1904
1936
1851
1702
1584
1552
1616
1753
1879
1922
1872
1744
1614
1531
1565
1680
1830
1920
1907
1804
1663
1555
1535
1632
1777
1882
1895
1822
1685
1573
1523
1585
1723
1857
1914
1861
1747
1615
1553
1591
1722
1853
1933
1907
1793
1664
1587
1607
1709
1852
1943
1941
1844
1697
1573
1525
1597
1743
1881
1949
1904
1786
1655
1588
1630
1745
1885
1965
1959
1856
1713
1616
1610
1697
1839
1942
1962
1879
1744
1628
1587
1654
1794
1929
1980
1910
1788
1650
1586
1623
1738
1876
1946
1912
1806
1663
1567
1569
1677
1843
1968
1993
1915
1789
1679
1662
1739
1873
1989
2020
1935
1787
1640
1573
1619
1758
1911
2000
1990
1884
1735
1625
1630
1734
1879
1984
1999
1904
1762
1647
1616
1685
1825
1961
2020
1966
1827
1690
1641
1682
1807
1950
2033
2017
1904
1774
1691
1710
1810
1968
2095
2126
2038
1904
1786
1739
1791
1909
2031
2067
1989
1851
1693
1607
1631
1742
1886
1981
1968
1853
1702
1600
1589
1677
1822
1938
1970
1893
1743
1613
1570
1621
1755
1898
1962
1914
1778
1647
1577
1616
1745
1895
1977
1957
1835
1671
1571
1571
1678
1828
1927
1931
1819
1661
1520
1498
1617
1839
2082
2256
2365
2430
2512
2659
2863
3111
3344
3477
3423
3186
2874
2544
2286
2148
2094
2058
1956
1791
1599
1445
1412
1502
1651
1783
1838
1781
1650
1507
1437
1488
1629
1783
1874
1851
1744
1602
1507
1508
1601
1729
1825
1838
1767
1639
1522
1498
1589
1744
1885
1924
1873
1744
1595
1509
1535
1675
1840
1935
1907
1792
1650
1557
1559
1665
1799
1899
1920
1830
1694
1583
1559
1651
1789
1911
1955
1903
1769
1638
1581
1616
1728
1881
1968
1951
1843
1690
1597
1599
1699
1872
2000
2023
1937
1794
1678
1649
1730
1871
1994
2036
1997
1882
1754
1694
1731
1840
1980
2064
2037
1920
1770
1666
1670
1781
1951
2094
2128
2047
1916
1794
1774
1856
2006
2138
2189
2129
1994
1850
1791
1831
1968
2130
2223
2208
2102
1956
1857
1863
1966
2099
2186
2174
2065
1907
1779
1743
1816
1955
2082
2115
2037
1892
1728
1629
1646
1745
1871
1927
1878
1743
1587
1479
1485
1600
1751
1851
1853
1761
1616
1493
1461
1533
1670
1809
1867
1803
1653
1502
1427
1475
1612
1771
1867
1858
1742
1583
1478
1491
1605
1755
1853
1863
1763
1616
1491
1474
1582
1741
1885
1936
1875
1744
1592
1520
1559
1680
1827
1914
1889
1793
1662
1571
1575
1670
1811
1925
1945
1871
1742
1604
1556
1626
1765
1917
1983
1931
1808
1680
1609
1643
1759
1905
1979
1951
1830
1680
1584
1582
1671
1808
1917
1941
1871
1737
1621
1603
1689
1840
1979
2024
1968
1840
1705
1641
1680
1808
1951
2038
2037
1950
1823
1738
1740
1831
1968
2093
2110
2021
1890
1782
1750
1821
1967
2111
2165
2135
2002
1873
1806
1842
1969
2110
2211
2219
2125
1998
1919
1921
2014
2148
2254
2255
2167
2005
1861
1799
1865
2011
2153
2179
2111
1968
1835
1777
1827
1967
2113
2187
2150
2010
1855
1751
1761
1872
2031
2158
2173
2062
1889
1751
1718
1780
1904
2013
2046
1984
1843
1712
1664
1719
1857
2003
2102
2094
1981
1822
1693
1649
1711
1825
1910
1922
1872
1792
1765
1868
2091
2390
2702
2934
3060
3095
3081
3085
3118
3170
3200
3093
2807
2437
2064
1774
1632
1646
1741
1822
1826
1730
1583
1456
1432
1520
1678
1813
1871
1801
1646
1488
1417
1467
1600
1744
1830
1809
1706
1575
1479
1485
1582
1711
1798
1807
1713
1586
1472
1449
1520
1665
1797
1851
1789
1660
1519
1457
1500
1630
1778
1861
1831
1718
1581
1483
1490
1611
1762
1883
1901
1826
1682
1553
1498
1567
1709
1849
1917
1857
1714
1577
1514
1557
1677
1816
1893
1879
1770
1613
1519
1520
1611
1753
1865
1895
1826
1696
1600
1582
1659
1796
1927
1958
1886
1742
1609
1567
1619
1775
1922
2013
1999
1882
1731
1631
1628
1729
1887
2001
2039
1968
1840
1737
1711
1776
1907
2043
2102
2037
1897
1759
1697
1754
1885
2017
2096
2063
1936
1776
1662
1648
1747
1895
2003
2014
1910
1750
1611
1566
1614
1724
1809
1814
1719
1569
1423
1363
1410
1535
1693
1779
1766
1653
1503
1392
1383
1471
1607
1711
1713
1617
1468
1345
1326
1407
1554
1680
1724
1663
1530
1395
1341
1396
1533
1679
1759
1734
1616
1456
1360
1366
1471
1634
1737
1765
1673
1526
1405
1381
1459
1626
1757
1793
1722
1584
1445
1386
1421
1552
1698
1776
1749
1639
1501
1416
1428
1535
1712
1831
1843
1755
1604
1479
1457
1535
1692
1810
1859
1797
1677
1552
1487
1511
1639
1791
1872
1846
1753
1630
1520
1510
1605
1744
1856
1878
1795
1655
1527
1485
1570
1713
1850
1883
1809
1677
1552
1495
1535
1699
1867
1949
1921
1806
1652
1535
1535
1653
1802
1915
1944
1862
1723
1603
1577
1655
1794
1919
1947
1879
1755
1632
1577
1614
1734
1878
1966
1958
1849
1705
1616
1631
1747
1914
2042
2065
1968
1825
1717
1698
1776
1911
2030
2067
2002
1854
1710
1620
1650
1760
1894
1972
1937
1813
1678
1600
1614
1726
1871
1975
1989
1907
1765
1643
1610
1690
1843
1982
2025
1955
1814
1673
1614
1662
1801
1949
2015
1975
1852
1699
1599
1611
1719
1870
1967
1975
1879
1715
1586
1534
1613
1751
1901
2007
2042
2019
2022
2125
2355
2694
3041
3312
3435
3410
3282
3136
3024
2951
2880
2738
2507
2204
1893
1657
1562
1600
1717
1838
1879
1826
1697
1567
1519
1586
1729
1874
1948
1904
1770
1616
1520
1535
1650
1783
1871
1874
1799
1667
1555
1527
1617
1766
1890
1939
1869
1734
1610
1559
1616
1744
1890
1967
1926
1810
1673
1582
1595
1712
1864
1968
1983
1897
1748
1637
1611
1687
1831
1954
1999
1939
1808
1667
1597
1638
1776
1922
1993
1982
1858
1707
1627
1651
1761
1909
2030
2047
1958
1810
1698
1679
1759
1899
2021
2080
2025
1895
1758
1696
1760
1902
2064
2157
2128
2005
1862
1766
1771
1891
2033
2137
2146
2064
1931
1834
1807
1899
2055
2193
2240
2178
2047
1911
1851
1904
2044
2206
2281
2258
2130
1979
1894
1895
2000
2160
2281
2293
2195
2032
1890
1840
1910
2038
2158
2182
2095
1919
1747
1667
1711
1838
1974
2043
1994
1848
1680
1565
1531
1616
1750
1858
1881
1808
1671
1535
1513
1584
1712
1839
1876
1825
1690
1535
1481
1523
1655
1799
1863
1831
1713
1575
1489
1524
1651
1808
1914
1901
1780
1632
1498
1467
1561
1722
1853
1902
1840
1697
1535
1465
1497
1629
1785
1895
1892
1789
1650
1559
1535
1647
1782
1877
1882
1794
1659
1533
1516
1615
1778
1919
1961
1873
1715
1573
1519
1584
1721
1878
1969
1939
1815
1651
1535
1535
1676
1840
1965
1984
1887
1744
1631
1599
1675
1810
1949
2010
1952
1823
1686
1619
1651
1771
1915
2000
1973
1872
1753
1686
1722
1831
1979
2082
2075
1947
1775
1645
1617
1711
1857
2000
2047
1981
1853
1717
1664
1712
1842
1975
2034
1989
1873
1750
1680
1698
1803
1947
2066
2093
2003
1866
1744
1711
1791
1930
2032
2060
1996
1875
1753
1703
1742
1865
2000
2083
2069
1971
1835
1733
1728
1828
1969
2076
2094
1996
1851
1742
1727
1822
1968
2098
2147
2095
1971
1846
1786
1838
1981
2134
2222
2209
2108
1963
1872
1879
1987
2127
2205
2193
2093
1939
1810
1771
1842
1978
2096
2131
2057
1909
1765
1706
1751
1872
2009
2079
2031
1917
1786
1723
1751
1872
2032
2135
2131
2032
1877
1761
1735
1807
1957
2099
2143
2081
1943
1808
1746
1791
1919
2066
2157
2134
1997
1824
1707
1694
1799
1957
2095
2151
2154
2123
2141
2277
2542
2891
3247
3524
3663
3643
3541
3443
3380
3351
3274
3071
2752
2399
2062
1822
1728
1776
1889
1979
1972
1876
1746
1647
1635
1722
1872
2001
2039
1955
1811
1677
1617
1680
1815
1965
2031
1998
1872
1734
1657
1680
1806
1967
2079
2082
1975
1822
1689
1649
1723
1861
1991
2061
2018
1904
1776
1719
1762
1890
2033
2113
2073
1936
1795
1724
1742
1861
2015
2125
2125
2010
1856
1744
1735
1836
1983
2112
2142
2064
1915
1785
1727
1789
1927
2085
2171
2155
2045
1893
1805
1806
1913
2064
2167
2181
2098
1958
1850
1824
1897
2026
2162
2224
2175
2041
1911
1854
1914
2057
2198
2270
2239
2130
1984
1901
1920
2045
2219
2340
2354
2270
2127
2007
1990
2087
2231
2350
2383
2315
2183
2055
1990
2038
2174
2327
2414
2385
2265
2108
1981
1971
2064
2191
2274
2258
2140
1979
1854
1826
1889
2006
2112
2128
2043
1893
1737
1657
1689
1818
1966
2029
1983
1855
1701
1606
1616
1713
1845
1943
1958
1868
1725
1607
1584
1663
1804
1927
1972
1904
1765
1617
1558
1606
1744
1887
1949
1905
1783
1647
1574
1595
1713
1859
1946
1926
1805
1642
1515
1488
1582
1744
1889
1940
1883
1750
1623
1583
1634
1759
1882
1935
1882
1744
1599
1534
1586
1718
1878
1955
1942
1808
1628
1497
1483
1586
1737
1866
1902
1820
1665
1529
1483
1554
1699
1847
1922
1895
1782
1648
1555
1568
1669
1811
1909
1907
1809
1657
1535
1527
1638
1791
1921
1957
1872
1718
1566
1499
1563
1709
1872
1966
1942
1830
1683
1593
1593
1686
1819
1904
1904
1814
1685
1584
1584
1691
1843
1972
2002
1918
1757
1614
1554
1612
1765
1920
2003
1982
1857
1718
1647
1664
1777
1915
2006
1984
1855
1696
1586
1589
1691
1852
1978
2023
1957
1819
1680
1601
1637
1775
1920
2000
1968
1867
1735
1642
1647
1750
1881
1985
1998
1906
1767
1649
1617
1699
1840
1969
1998
1915
1767
1631
1586
1658
1835
2000
2099
2075
1974
1827
1734
1759
1873
2014
2127
2129
2033
1883
1755
1724
1808
1951
2089
2128
2053
1903
1744
1664
1697
1831
1983
2054
1995
1857
1706
1622
1631
1744
1895
2001
2005
1905
1757
1639
1610
1681
1813
1936
1978
1904
1763
1642
1600
1665
1803
1940
2000
1952
1821
1675
1586
1616
1770
1947
2078
2064
1920
1727
1573
1519
1584
1722
1861
1939
1936
1899
1877
1965
2209
2549
2922
3213
3347
3331
3221
3117
3071
3070
3054
2911
2650
2300
1943
1674
1535
1559
1669
1778
1811
1744
1615
1483
1439
1498
1639
1776
1840
1803
1669
1514
1435
1456
1595
1760
1859
1855
1745
1584
1457
1430
1519
1675
1814
1866
1810
1693
1579
1524
1582
1711
1829
1871
1834
1722
1578
1498
1523
1648
1794
1899
1904
1805
1658
1527
1493
1585
1744
1876
1915
1844
1712
1593
1553
1630
1778
1910
1968
1918
1777
1627
1556
1589
1719
1876
1975
1966
1841
1684
1578
1576
1664
1812
1949
1991
1936
1819
1694
1632
1681
1808
1951
2020
1983
1855
1709
1624
1662
1797
1965
2079
2090
1997
1857
1739
1715
1808
1963
2096
2127
2057
1921
1797
1756
1833
1977
2132
2214
2176
2038
1883
1792
1802
1915
2083
2192
2214
2121
1984
1875
1843
1890
1999
2107
2113
2014
1840
1677
1599
1633
1759
1895
1961
1911
1771
1611
1515
1535
1647
1776
1854
1835
1712
1535
1421
1399
1472
1618
1746
1779
1711
1585
1462
1426
1483
1615
1744
1811
1774
1653
1506
1433
1447
1533
1651
1729
1724
1643
1506
1403
1391
1494
1662
1792
1825
1744
1607
1473
1429
1485
1617
1751
1808
1749
1606
1454
1381
1424
1575
1743
1856
1859
1759
1617
1487
1461
1535
1680
1794
1825
1745
1607
1486
1453
1525
1671
1807
1872
1842
1728
1587
1504
1530
1659
1815
1926
1936
1824
1667
1535
1509
1584
1712
1819
1842
1765
1629
1510
1472
1535
1682
1839
1910
1871
1745
1614
1535
1562
1670
1813
1889
1861
1731
1587
1482
1488
1606
1763
1882
1907
1833
1698
1570
1523
1591
1727
1854
1924
1879
1747
1595
1503
1535
1669
1819
1918
1919
1820
1667
1555
1535
1637
1776
1893
1920
1845
1707
1570
1526
1600
1747
1895
1969
1941
1831
1702
1640
1680
1797
1943
2033
2028
1914
1764
1634
1597
1674
1811
1929
1955
1868
1713
1585
1552
1623
1759
1889
1943
1883
1745
1598
1519
1558
1681
1838
1949
1949
1838
1680
1566
1535
1641
1785
1904
1947
1872
1739
1610
1555
1616
1755
1899
1963
1914
1791
1647
1557
1583
1692
1835
1913
1887
1771
1615
1518
1535
1705
1965
2246
2469
2599
2657
2719
2846
3047
3301
3516
3567
3402
3105
2730
2392
2178
2075
2054
2032
1958
1818
1654
1523
1488
1579
1739
1872
1911
1823
1670
1522
1467
1531
1678
1822
1873
1840
1719
1562
1466
1485
1617
1794
1905
1910
1811
1664
1558
1535
1644
1795
1923
1953
1877
1745
1632
1589
1663
1807
1955
2022
1969
1845
1695
1619
1648
1767
1909
2015
2038
1957
1814
1706
1683
1776
1916
2032
2074
2006
1869
1724
1671
1734
1873
2032
2117
2091
1965
1821
1744
1775
1878
2023
2117
2112
2007
1871
1765
1757
1856
1991
2129
2167
2096
1959
1845
1814
1879
2030
2185
2262
2236
2103
1951
1867
1889
2011
2176
2285
2291
2207
2073
1967
1954
2039
2201
2327
2375
2307
2169
2037
1991
2062
2198
2328
2384
2330
2198
2064
1982
1999
2106
2240
2323
2317
2202
2055
1936
1909
1987
2101
2192
2192
2085
1917
1763
1710
1756
1886
2026
2092
2034
1893
1733
1643
1645
1748
1897
1991
1971
1855
1697
1568
1535
1655
1814
1936
1968
1882
1735
1610
1570
1639
1778
1921
1989
1945
1807
1664
1593
1627
1757
1911
2007
1994
1883
1719
1600
1585
1679
1823
1939
1980
1902
1746
1611
1563
1627
1775
1920
1985
1951
1823
1658
1552
1559
1677
1837
1939
1951
1865
1722
1613
1590
1659
1787
1897
1914
1834
1698
1572
1531
1584
1699
1808
1843
1761
1625
1456
1362
1386
1501
1653
1745
1728
1605
1437
1312
1290
1377
1530
1655
1674
1584
1434
1302
1264
1331
1460
1589
1647
1597
1456
1310
1235
1265
1381
1535
1626
1607
1485
1328
1216
1211
1322
1485
1616
1655
1591
1453
1328
1275
1330
1454
1575
1630
1579
1447
1328
1277
1315
1463
1628
1729
1709
1584
1421
1307
1295
1395
1552
1679
1712
1649
1509
1373
1340
1401
1535
1685
1765
1739
1616
1469
1379
1406
1535
1717
1825
1827
1729
1588
1482
1470
1571
1727
1843
1870
1805
1678
1559
1521
1601
1746
1904
1978
1938
1812
1668
1593
1619
1763
1936
2047
2058
1981
1861
1777
1786
1891
2031
2138
2167
2088
1946
1838
1804
1873
2007
2128
2165
2102
1969
1823
1744
1776
1913
2085
2199
2205
2103
1948
1843
1840
1940
2112
2239
2267
2192
2033
1908
1870
1943
2101
2240
2304
2274
2147
2005
1949
2010
2153
2302
2397
2384
2273
2145
2053
2071
2176
2318
2419
2416
2320
2180
2064
2064
2203
2432
2690
2903
3035
3089
3145
3279
3529
3930
4095
4095
4095
4095
4023
3662
3374
3200
3091
3003
2875
2689
2480
2310
2257
2333
2485
2634
2718
2691
2583
2458
2410
2448
2559
2708
2805
2800
2703
2559
2473
2463
2550
2699
2816
2842
2768
2639
2522
2505
2598
2758
2916
2992
2939
2815
2684
2622
2641
2750
2894
2989
2969
2855
2704
2591
2559
2647
2791
2902
2909
2800
2624
2465
2406
2461
2602
2731
2772
2703
2544
2379
2273
2278
2376
2512
2597
2559
2438
2268
2144
2115
2192
2318
2403
2405
2301
2147
2000
1943
1993
2119
2240
2288
2226
2082
1919
1815
1815
1912
2042
2125
2113
2003
1872
1779
1777
1863
1987
2092
2096
1986
1836
1710
1673
1746
1885
2003
2058
1991
1856
1712
1641
1668
1779
1904
1969
1931
1808
1657
1554
1535
1632
1767
1866
1881
1793
1626
1470
1402
1442
1535
1645
1661
1590
1440
1277
1168
1168
1254
1370
1431
1397
1280
1126
1007
994
1074
1202
1302
1314
1201
1062
919
879
941
1074
1201
1253
1187
1053
903
829
880
996
1135
1213
1191
1079
939
843
843
933
1075
1185
1190
1105
964
846
810
883
1034
1158
1203
1150
1008
868
798
834
974
1131
1211
1193
1073
911
806
798
893
1043
1157
1183
1091
952
846
827
911
1049
1171
1215
1148
1011
881
819
877
1035
1195
1276
1237
1114
948
859
883
1020
1182
1299
1317
1221
1067
960
950
1037
1191
1346
1424
1389
1258
1115
1041
1074
1200
1339
1421
1392
1276
1143
1066
1088
1213
1372
1487
1509
1417
1276
1168
1150
1236
1389
1535
1600
1535
1403
1264
1198
1245
1378
1552
1666
1667
1562
1401
1313
1317
1427
1583
1691
1706
1605
1450
1330
1318
1408
1562
1693
1751
1719
1605
1471
1423
1467
1597
1728
1804
1771
1659
1520
1438
1452
1564
1728
1842
1855
1758
1600
1470
1438
1502
1648
1808
1887
1843
1723
1598
1535
1582
1706
1847
1923
1913
1798
1653
1535
1533
1639
1796
1919
1945
1871
1729
1628
1604
1697
1854
1989
2037
1974
1835
1687
1617
1653
1782
1936
2025
2015
1915
1779
1691
1698
1808
1959
2082
2105
2018
1879
1758
1712
1775
1923
2074
2140
2085
1951
1817
1773
1845
1987
2143
2233
2224
2125
1983
1893
1893
1984
2133
2254
2282
2192
2041
1917
1882
1965
2112
2247
2297
2235
2085
1922
1842
1883
2004
2155
2235
2224
2121
1978
1893
1892
1994
2139
2240
2253
2161
2016
1901
1872
1955
2102
2224
2263
2208
2068
1919
1850
1891
2015
2161
2253
2250
2126
1984
1874
1871
1955
2101
2176
2159
2054
1909
1819
1839
2000
2251
2502
2709
2847
2923
2990
3135
3351
3651
3975
4095
3944
3570
3162
2795
2527
2391
2349
2320
2231
2061
1852
1699
1667
1759
1921
2078
2131
2071
1920
1776
1703
1743
1871
2016
2099
2064
1936
1793
1699
1712
1831
1995
2128
2139
2039
1887
1760
1744
1849
2007
2146
2191
2118
1970
1818
1742
1783
1933
2101
2197
2166
2047
1905
1828
1842
1934
2064
2161
2173
2091
1966
1866
1847
1934
2087
2211
2253
2174
2027
1899
1840
1886
2014
2162
2247
2242
2157
2014
1912
1904
1984
2122
2234
2257
2181
2047
1949
1920
1985
2126
2254
2306
2243
2123
1989
1927
1980
2113
2254
2335
2313
2195
2069
1984
1995
2105
2259
2354
2353
2255
2128
2032
2035
2138
2282
2415
2463
2405
2258
2117
2047
2092
2215
2362
2445
2431
2326
2192
2107
2113
2224
2373
2478
2473
2370
2208
2064
2013
2076
2199
2306
2327
2242
2083
1921
1834
1843
1955
2095
2160
2129
2007
1871
1783
1787
1879
2016
2119
2115
1997
1838
1706
1682
1776
1946
2095
2143
2091
1951
1807
1726
1775
1907
2058
2145
2126
2003
1842
1730
1735
1854
2000
2112
2130
2054
1903
1776
1745
1819
1963
2103
2159
2103
1969
1843
1790
1840
1951
2085
2143
2103
1973
1829
1743
1754
1878
2052
2175
2177
2066
1899
1767
1741
1819
1968
2097
2133
2064
1917
1776
1728
1797
1939
2090
2145
2101
1955
1792
1686
1687
1806
1953
2055
2063
1953
1792
1664
1641
1738
1901
2023
2070
1984
1857
1724
1658
1701
1808
1934
1998
1968
1839
1698
1613
1622
1733
1872
1967
1957
1849
1707
1605
1602
1697
1837
1951
1991
1920
1776
1641
1592
1648
1775
1919
1987
1958
1840
1706
1629
1639
1750
1889
1982
1986
1888
1738
1614
1584
1667
1825
1951
1983
1895
1745
1610
1572
1643
1770
1904
1973
1962
1863
1713
1613
1611
1724
1879
1973
1963
1840
1684
1578
1565
1659
1794
1923
1959
1879
1738
1604
1552
1600
1711
1840
1910
1872
1757
1616
1533
1554
1667
1811
1904
1887
1789
1661
1552
1535
1634
1786
1914
1957
1883
1724
1574
1491
1531
1646
1787
1859
1830
1711
1556
1458
1470
1574
1712
1808
1777
1659
1511
1422
1408
1502
1650
1777
1811
1738
1588
1442
1388
1445
1600
1750
1833
1805
1673
1507
1406
1418
1528
1680
1793
1807
1713
1583
1458
1442
1535
1694
1818
1851
1767
1617
1442
1359
1391
1535
1730
1872
1939
1931
1915
2000
2210
2502
2847
3127
3262
3231
3088
2907
2775
2703
2627
2491
2301
2046
1767
1518
1381
1389
1513
1664
1751
1727
1623
1479
1398
1414
1527
1690
1809
1839
1758
1616
1511
1462
1525
1665
1784
1827
1766
1628
1489
1438
1490
1643
1801
1876
1854
1758
1627
1535
1565
1673
1815
1906
1898
1780
1622
1513
1502
1616
1775
1901
1929
1835
1682
1535
1488
1559
1716
1875
1958
1930
1808
1666
1589
1616
1733
1882
1975
1969
1858
1717
1609
1593
1691
1853
1972
2013
1954
1839
1707
1650
1707
1845
1993
2064
2012
1898
1765
1703
1715
1829
1986
2099
2117
2031
1899
1797
1790
1885
2032
2161
2202
2156
2030
1892
1834
1877
2014
2169
2253
2231
2125
1986
1901
1917
2023
2173
2276
2275
2182
2037
1966
1940
2038
2195
2310
2327
2245
2095
1941
1873
1919
2033
2145
2192
2131
1986
1840
1743
1737
1826
1947
2021
1999
1877
1712
1591
1556
1634
1775
1884
1903
1808
1654
1519
1481
1535
1701
1853
1930
1893
1761
1607
1532
1555
1667
1807
1885
1871
1773
1631
1521
1505
1593
1734
1865
1908
1842
1707
1578
1509
1583
1734
1903
1987
1959
1834
1680
1587
1614
1723
1868
1979
2006
1927
1797
1701
1706
1808
1949
2064
2093
2000
1850
1706
1647
1702
1850
2030
2123
2090
1942
1787
1697
1703
1801
1938
2037
2032
1934
1782
1691
1687
1786
1923
2032
2053
1969
1840
1727
1680
1728
1853
1983
2063
2023
1904
1767
1693
1712
1830
1973
2083
2086
1983
1833
1712
1677
1746
1882
1997
2025
1959
1819
1696
1649
1711
1835
1967
2030
1991
1869
1730
1657
1680
1790
1919
1991
1971
1875
1743
1635
1627
1733
1887
2022
2064
1979
1834
1698
1655
1723
1856
1986
2039
1995
1875
1734
1671
1706
1840
2006
2112
2103
1979
1808
1680
1671
1776
1943
2077
2095
2000
1843
1701
1647
1709
1862
2025
2114
2078
1943
1806
1725
1751
1882
2038
2142
2149
2045
1899
1795
1786
1878
2017
2141
2165
2070
1916
1783
1744
1795
1915
2038
2083
2013
1859
1698
1616
1650
1791
1947
2055
2064
1966
1814
1684
1642
1708
1854
1987
2039
1975
1847
1727
1685
1744
1883
2016
2078
2006
1859
1712
1634
1673
1803
1968
2058
2032
1904
1744
1616
1593
1675
1840
2001
2106
2123
2096
2114
2227
2465
2800
3148
3405
3519
3477
3331
3183
3071
3008
2935
2778
2525
2231
1935
1703
1601
1655
1773
1875
1910
1841
1711
1590
1535
1634
1786
1920
1984
1937
1807
1664
1571
1585
1689
1844
1943
1937
1840
1703
1585
1580
1655
1798
1926
1968
1896
1768
1648
1599
1653
1776
1897
1953
1916
1792
1653
1582
1614
1735
1890
1984
1969
1866
1716
1609
1583
1659
1810
1935
1968
1902
1772
1636
1600
1683
1833
1973
2035
1986
1867
1739
1679
1711
1820
1966
2062
2058
1949
1807
1706
1706
1822
1973
2096
2113
2041
1920
1817
1794
1875
2015
2145
2192
2138
2004
1862
1792
1840
1968
2130
2240
2241
2140
2005
1905
1904
1990
2155
2287
2320
2239
2101
1971
1922
2006
2171
2303
2343
2265
2145
2027
1979
2019
2150
2288
2353
2336
2231
2085
1971
1952
2027
2147
2239
2235
2123
1939
1791
1725
1770
1887
2003
2041
1963
1806
1639
1533
1535
1651
1787
1867
1858
1755
1611
1495
1473
1584
1740
1851
1861
1749
1607
1475
1430
1503
1655
1811
1881
1828
1703
1574
1511
1552
1679
1835
1914
1890
1769
1633
1557
1574
1680
1823
1941
1959
1866
1726
1627
1601
1696
1851
1991
2055
2000
1873
1725
1649
1682
1809
1955
2043
2045
1946
1810
1714
1715
1801
1935
2046
2070
1987
1840
1708
1657
1723
1874
2027
2099
2046
1919
1773
1687
1714
1833
1974
2059
2034
1923
1767
1657
1653
1758
1904
2018
2055
1978
1837
1701
1648
1703
1843
1984
2053
2005
1901
1769
1694
1694
1815
1928
2005
2000
1895
1749
1642
1633
1726
1870
1982
2011
1953
1829
1718
1680
1754
1889
2017
2064
2003
1872
1733
1674
1706
1821
1973
2077
2066
1952
1803
1698
1685
1777
1926
2055
2090
2005
1860
1731
1682
1750
1893
2035
2095
2023
1883
1749
1700
1744
1872
2005
2094
2065
1946
1791
1683
1682
1791
1927
2032
2047
1968
1834
1711
1663
1728
1872
2011
2063
1990
1853
1713
1653
1683
1805
1937
2001
1965
1839
1687
1606
1616
1719
1874
1990
2004
1926
1792
1680
1654
1732
1883
2029
2085
2017
1887
1731
1658
1698
1831
1974
2047
2009
1874
1703
1593
1584
1681
1817
1927
1935
1841
1695
1570
1526
1595
1739
1871
1926
1873
1728
1583
1499
1535
1677
1840
1954
1952
1858
1717
1610
1600
1686
1840
1957
1981
1898
1758
1639
1602
1664
1776
1888
1917
1840
1675
1520
1459
1535
1728
1940
2128
2237
2285
2318
2410
2608
2887
3213
3467
3569
3447
3169
2866
2610
2427
2321
2230
2109
1919
1690
1466
1329
1331
1443
1574
1655
1648
1535
1391
1293
1303
1424
1598
1709
1712
1616
1461
1335
1297
1362
1520
1670
1728
1677
1535
1393
1326
1360
1493
1632
1723
1712
1614
1489
1407
1431
1559
1721
1833
1834
1723
1567
1456
1446
1527
1680
1831
1899
1857
1738
1589
1514
1535
1674
1824
1925
1904
1792
1651
1535
1535
1657
1827
1969
2015
1927
1777
1643
1612
1676
1808
1922
1963
1905
1773
1633
1570
1617
1747
1899
1987
1969
1879
1771
1703
1703
1791
1923
2004
1999
1904
1776
1654
1627
1703
1843
1974
2032
1986
1871
1755
1697
1744
1889
2039
2130
2127
2015
1877
1778
1801
1921
2071
2177
2176
2093
1934
1813
1801
1888
2035
2182
2210
2131
1997
1866
1810
1855
1968
2097
2157
2110
1963
1791
1671
1657
1757
1909
2013
2000
1882
1718
1578
1520
1597
1735
1869
1931
1881
1754
1616
1562
1621
1757
1908
1985
1938
1806
1648
1535
1535
1648
1809
1951
1977
1884
1735
1606
1556
1619
1747
1882
1931
1881
1767
1651
1600
1648
1782
1923
2010
1954
1797
1622
1519
1523
1631
1783
1895
1923
1841
1710
1594
1557
1628
1751
1863
1904
1849
1712
1580
1517
1555
1675
1821
1911
1895
1779
1631
1535
1553
1682
1827
1919
1923
1831
1687
1573
1555
1661
1830
1965
2011
1936
1778
1623
1558
1604
1744
1887
1965
1938
1845
1712
1633
1657
1771
1908
2018
2033
1932
1780
1664
1639
1718
1877
2017
2078
1998
1844
1699
1646
1706
1844
2011
2103
2079
1959
1820
1729
1731
1840
1983
2098
2121
2034
1894
1776
1758
1819
1931
2054
2097
2029
1881
1738
1680
1735
1873
2028
2122
2089
1964
1821
1725
1718
1835
1987
2097
2099
1988
1824
1687
1648
1719
1871
2010
2081
2032
1901
1754
1680
1713
1834
1969
2038
1999
1867
1712
1620
1645
1759
1918
2036
2045
1937
1789
1675
1664
1763
1931
2078
2128
2047
1895
1744
1683
1729
1861
2011
2105
2090
1982
1855
1787
1815
1927
2077
2178
2187
2096
1936
1809
1779
1853
1995
2122
2160
2098
1951
1794
1710
1737
1857
2004
2097
2075
1950
1783
1677
1675
1792
1950
2091
2122
2030
1872
1735
1684
1750
1890
2018
2077
2007
1873
1740
1673
1713
1842
1987
2085
2054
1935
1791
1686
1687
1797
1949
2036
2015
1904
1733
1590
1565
1668
1859
2067
2207
2275
2306
2359
2482
2706
3019
3341
3551
3569
3386
3121
2877
2659
2490
2377
2267
2122
1923
1711
1554
1501
1584
1721
1858
1904
1843
1696
1557
1503
1570
1719
1887
1984
1968
1859
1712
1621
1645
1759
1904
1995
1991
1888
1743
1620
1588
1668
1830
1968
2018
1975
1845
1709
1648
1696
1830
1966
2035
1990
1863
1717
1623
1638
1754
1911
2027
2032
1923
1775
1646
1621
1715
1861
1989
2039
1977
1840
1693
1627
1667
1819
1975
2074
2064
1968
1808
1691
1678
1780
1929
2029
2047
1950
1809
1696
1664
1747
1904
2055
2099
2032
1899
1761
1723
1776
1902
2034
2095
2045
1920
1794
1719
1751
1886
2039
2160
2189
2125
1994
1873
1845
1920
2085
2229
2290
2229
2086
1938
1882
1930
2058
2208
2297
2279
2165
2001
1920
1952
2087
2237
2333
2334
2233
2077
1935
1885
1959
2097
2224
2254
2161
1997
1829
1743
1776
1903
2031
2097
2063
1910
1731
1621
1614
1695
1824
1918
1904
1794
1642
1525
1520
1628
1781
1915
1936
1850
1702
1563
1497
1535
1680
1831
1905
1873
1760
1627
1535
1535
1658
1805
1903
1898
1777
1639
1529
1514
1597
1751
1891
1927
1861
1723
1593
1534
1599
1755
1920
2010
1975
1854
1713
1634
1653
1765
1919
2027
2038
1946
1805
1684
1662
1734
1872
2001
2055
1999
1872
1744
1691
1758
1891
2031
2105
2060
1925
1761
1663
1680
1792
1957
2083
2097
2000
1866
1766
1745
1821
1955
2087
2119
2039
1883
1729
1679
1726
1869
2033
2114
2095
1968
1826
1730
1744
1869
2013
2109
2096
1971
1813
1686
1658
1747
1903
2031
2075
2005
1885
1754
1690
1735
1851
1985
2076
2063
1953
1834
1751
1774
1873
2011
2110
2111
1999
1843
1728
1694
1762
1889
2000
2037
1968
1821
1680
1623
1671
1808
1943
2017
1983
1852
1702
1605
1615
1727
1887
1998
1995
1890
1750
1636
1610
1705
1858
1991
2034
1970
1836
1719
1667
1706
1814
1949
2029
2000
1887
1744
1667
1681
1776
1902
1981
1966
1849
1690
1583
1600
1762
2021
2290
2492
2619
2667
2709
2812
2997
3239
3440
3502
3355
3059
2687
2334
2111
2009
1993
1982
1915
1769
1609
1475
1458
1535
1703
