2047
1955
1776
1616
1563
1616
1767
1926
1991
1937
1787
1614
1503
1535
1667
1840
1955
1947
1815
1653
1524
1527
1650
1821
1966
1987
1909
1744
1582
1504
1563
1727
1893
1957
1911
1780
1627
1535
1578
1707
1872
1984
1965
1830
1633
1488
1467
1589
1775
1937
1985
1907
1737
1584
1535
1648
1829
1993
2062
1999
1856
1689
1597
1616
1744
1893
1995
1973
1834
1652
1518
1503
1633
1802
1911
1911
1802
1623
1455
1395
1478
1643
1797
1862
1799
1638
1454
1358
1410
1564
1714
1807
1783
1669
1499
1374
1367
1475
1661
1798
1803
1727
1535
1394
1354
1441
1613
1771
1843
1792
1645
1469
1382
1418
1535
1681
1762
1723
1593
1445
1386
1467
1698
2023
2352
2582
2701
2739
2790
2928
3148
3421
3631
3616
3347
2935
2487
2135
1939
1905
1941
1936
1847
1677
1474
1351
1357
1486
1667
1819
1867
1767
1597
1451
1428
1520
1680
1819
1875
1818
1671
1517
1447
1503
1651
1822
1929
1909
1776
1590
1464
1463
1599
1793
1933
1940
1843
1676
1535
1488
1559
1718
1883
1958
1905
1754
1590
1501
1533
1687
1860
1951
1914
1775
1605
1502
1509
1642
1823
1970
1984
1872
1684
1521
1477
1559
1714
1861
1920
1863
1723
1578
1507
1558
1701
1857
1946
1914
1779
1610
1493
1520
1669
1859
2005
2032
1917
1730
1579
1534
1646
1830
1997
2053
1989
1851
1709
1645
1703
1862
2028
2144
2118
1968
1791
1680
1711
1853
2034
2188
2210
2105
1929
1780
1744
1843
2015
2177
2241
2185
2015
1859
1783
1830
1955
2107
2213
2193
2055
1873
1755
1744
1834
1965
2063
2055
1933
1741
1571
1494
1565
1713
1865
1909
1810
1623
1442
1358
1415
1569
1739
1823
1787
1638
1449
1331
1360
1499
1682
1810
1823
1703
1526
1390
1360
1462
1648
1813
1872
1778
1597
1440
1376
1456
1633
1801
1879
1835
1669
1488
1373
1386
1529
1721
1871
1901
1794
1621
1461
1426
1523
1711
1866
1919
1854
1690
1518
1427
1488
1653
1841
1965
1942
1792
1615
1486
1489
1617
1797
1919
1935
1815
1635
1488
1477
1600
1789
1945
1983
1882
1711
1535
1479
1535
1711
1889
1982
1950
1806
1623
1520
1535
1695
1874
2006
2006
1891
1707
1535
1520
1627
1808
1971
2032
1957
1786
1598
1499
1564
1743
1936
2032
1995
1833
1648
1535
1581
1733
1921
2047
2047
1935
1769
1648
1635
1719
1872
2010
2055
1968
1791
1615
1558
1655
1833
2012
2112
2069
1910
1734
1629
1650
1783
1949
2082
2092
1971
1808
1674
1652
1776
1953
2113
2157
2064
1891
1724
1676
1777
1948
2130
2210
2172
1999
1808
1701
1729
1874
2065
2194
2192
2080
1902
1744
1707
1791
1951
2114
2160
2068
1897
1744
1712
1799
1959
2119
2175
2106
1944
1781
1687
1721
1870
2065
2209
2239
2121
1917
1765
1744
1854
2031
2182
2224
2128
1952
1775
1706
1778
1966
2151
2218
2128
1925
1722
1616
1633
1772
1955
2074
2068
1933
1744
1610
1600
1709
1873
2019
2059
1950
1776
1617
1574
1666
1843
2015
2095
2015
1837
1639
1523
1568
1715
1906
2032
2021
1872
1680
1531
1520
1631
1792
1919
1936
1820
1625
1455
1423
1535
1794
2095
2335
2475
2515
2555
2672
2912
3245
3581
3824
3777
3455
3066
2688
2397
2240
2174
2131
2032
1847
1614
1407
1351
1422
1591
1763
1840
1783
1643
1471
1376
1407
1535
1723
1835
1827
1692
1501
1371
1373
1501
1683
1839
1863
1759
1578
1423
1373
1455
1642
1846
1953
1926
1776
1600
1486
1501
1626
1777
1886
1863
1742
1570
1445
1447
1575
1751
1905
1935
1818
1623
1466
1423
1503
1687
1866
1951
1889
1717
1520
1410
1456
1647
1854
1968
1941
1791
1600
1447
1423
1535
1738
1904
1945
1862
1695
1535
1514
1615
1778
1923
1980
1911
1749
1570
1468
1522
1706
1907
2031
2010
1887
1708
1584
1586
1715
1910
2074
2115
2013
1835
1679
1631
1721
1899
2071
2157
2105
1939
1767
1677
1710
1847
2030
2160
2147
1998
1799
1653
1648
1787
1977
2133
2148
2017
1834
1680
1635
1697
1851
1987
2007
1904
1703
1498
1399
1436
1584
1755
1859
1840
1678
1472
1328
1310
1414
1578
1699
1694
1565
1380
1234
1191
1280
1454
1638
1703
1623
1446
1262
1167
1209
1362
1535
1651
1648
1535
1375
1245
1242
1365
1535
1682
1707
1598
1411
1260
1216
1312
1502
1677
1733
1662
1488
1319
1230
1264
1412
1598
1715
1693
1559
1379
1266
1275
1395
1584
1722
1744
1636
1467
1328
1280
1359
1534
1708
1779
1696
1496
1303
1217
1279
1454
1655
1753
1719
1577
1391
1279
1285
1420
1601
1730
1735
1614
1406
1270
1248
1351
1533
1699
1742
1663
1474
1307
1229
1292
1465
1653
1749
1703
1535
1365
1243
1245
1382
1569
1693
1722
1622
1446
1299
1263
1357
1535
1697
1758
1664
1488
1315
1227
1277
1441
1619
1712
1670
1518
1338
1220
1264
1409
1605
1733
1745
1631
1443
1303
1282
1363
1535
1700
1764
1697
1520
1359
1301
1377
1525
1686
1747
1687
1530
1369
1273
1317
1474
1661
1778
1782
1664
1493
1359
1315
1410
1600
1754
1787
1695
1520
1370
1326
1421
1641
1843
1926
1849
1664
1461
1330
1332
1469
1658
1792
1803
1694
1529
1389
1373
1488
1685
1841
1860
1755
1583
1426
1379
1463
1629
1797
1873
1826
1670
1489
1405
1459
1639
1836
1967
1951
1811
1627
1478
1451
1557
1730
1872
1904
1805
1616
1444
1376
1447
1616
1783
1862
1799
1633
1451
1341
1360
1519
1724
1846
1821
1664
1477
1346
1345
1459
1633
1779
1812
1734
1586
1447
1415
1494
1673
1853
1921
1847
1680
1494
1392
1424
1577
1771
1887
1865
1712
1505
1350
1328
1424
1609
1772
1842
1833
1793
1793
1951
2239
2604
2962
3248
3361
3279
3106
2945
2874
2867
2822
2688
2429
2080
1707
1431
1326
1387
1559
1714
1759
1681
1507
1344
1281
1374
1573
1758
1845
1762
1585
1405
1311
1353
1511
1706
1831
1823
1701
1525
1410
1429
1563
1758
1888
1882
1749
1589
1453
1416
1505
1705
1904
1997
1936
1765
1583
1492
1552
1714
1904
2015
1981
1857
1665
1520
1517
1643
1828
1974
2009
1914
1750
1625
1585
1659
1838
2010
2077
2002
1829
1647
1553
1599
1760
1961
2070
2034
1898
1715
1578
1571
1697
1889
2032
2069
1969
1809
1670
1643
1743
1927
2102
2179
2131
1981
1807
1713
1747
1886
2041
2145
2143
2015
1851
1733
1755
1891
2095
2247
2262
2156
1975
1845
1817
1917
2096
2259
2327
2262
2096
1917
1836
1867
2017
2188
2290
2281
2154
1968
1840
1841
1959
2123
2240
2236
2101
1889
1715
1653
1735
1910
2047
2080
1973
1789
1599
1489
1526
1685
1855
1948
1891
1715
1522
1407
1397
1522
1701
1839
1845
1737
1567
1429
1423
1515
1679
1831
1888
1823
1647
1456
1366
1410
1570
1738
1838
1797
1658
1493
1391
1394
1533
1710
1843
1862
1750
1559
1393
1358
1454
1627
1776
1823
1749
1582
1415
1344
1406
1570
1750
1862
1833
1674
1477
1359
1386
1521
1713
1853
1851
1714
1523
1379
1345
1428
1603
1776
1841
1777
1616
1456
1388
1445
1595
1759
1860
1856
1729
1553
1434
1441
1570
1744
1878
1879
1761
1587
1446
1423
1525
1712
1887
1967
1907
1746
1587
1498
1532
1670
1839
1929
1904
1747
1576
1461
1488
1633
1808
1923
1920
1806
1648
1520
1507
1606
1776
1933
1983
1902
1744
1590
1531
1600
1753
1907
1980
1932
1781
1612
1511
1535
1695
1870
1985
1999
1906
1734
1595
1553
1641
1822
1984
2018
1938
1786
1647
1584
1647
1818
1997
2100
2053
1907
1761
1695
1737
1870
2059
2171
2145
2001
1813
1671
1648
1757
1938
2097
2115
1998
1806
1638
1573
1654
1829
2011
2112
2063
1894
1698
1582
1600
1726
1909
2043
2058
1933
1755
1614
1591
1709
1904
2080
2125
2017
1840
1662
1586
1664
1833
2000
2093
2032
1873
1699
1591
1602
1729
1904
2017
1995
1840
1643
1523
1581
1794
2101
2394
2611
2720
2766
2818
2943
3152
3427
3671
3689
3431
3035
2608
2235
2014
1969
2006
2031
1949
1790
1598
1453
1438
1535
1745
1904
1952
1874
1715
1568
1495
1530
1680
1840
1936
1881
1727
1535
1451
1488
1654
1840
1954
1935
1791
1607
1465
1461
1597
1787
1936
1957
1838
1648
1488
1436
1518
1689
1874
1947
1898
1742
1559
1472
1523
1664
1843
1956
1936
1806
1625
1501
1505
1632
1811
1966
2005
1899
1707
1526
1466
1563
1743
1921
1998
1949
1793
1619
1521
1582
1729
1904
2018
1997
1872
1702
1574
1583
1707
1885
2014
2025
1911
1745
1600
1571
1663
1851
2046
2151
2118
1967
1791
1684
1713
1856
2046
2173
2165
2034
1857
1739
1749
1888
2095
2256
2304
2209
2034
1873
1840
1922
2094
2263
2337
2270
2096
1917
1821
1876
2041
2230
2331
2285
2119
1914
1783
1764
1855
2011
2137
2158
2035
1838
1648
1572
1622
1766
1906
1959
1899
1733
1535
1450
1486
1631
1814
1910
1883
1742
1567
1442
1443
1562
1713
1834
1842
1735
1567
1424
1401
1488
1663
1837
1902
1827
1670
1504
1424
1468
1615
1795
1911
1882
1723
1529
1406
1408
1529
1715
1857
1878
1774
1597
1424
1393
1517
1717
1887
1952
1859
1662
1473
1388
1456
1633
1809
1903
1867
1714
1535
1424
1441
1584
1779
1925
1949
1840
1651
1474
1426
1515
1687
1840
1909
1845
1691
1517
1440
1497
1676
1856
1939
1887
1740
1535
1423
1442
1586
1770
1913
1955
1859
1674
1500
1463
1563
1719
1869
1910
1799
1605
1424
1371
1443
1610
1786
1891
1872
1728
1535
1427
1451
1600
1786
1907
1895
1769
1584
1447
1438
1535
1719
1858
1899
1808
1623
1445
1373
1421
1585
1782
1887
1867
1730
1535
1429
1430
1559
1735
1879
1894
1792
1601
1433
1390
1482
1650
1794
1840
1776
1626
1463
1406
1462
1616
1776
1873
1856
1728
1564
1458
1474
1623
1807
1936
1938
1841
1678
1553
1535
1666
1853
2009
2055
1969
1801
1636
1562
1627
1790
1963
2037
1999
1849
1667
1533
1531
1650
1819
1936
1926
1788
1603
1451
1419
1535
1776
1981
2033
1919
1706
1511
1431
1493
1669
1850
1933
1883
1728
1563
1455
1488
1643
1825
1959
1967
1841
1646
1493
1477
1588
1765
1917
1955
1852
1651
1453
1359
1414
1603
1831
1984
2047
2032
2013
2086
2301
2647
3040
3378
3539
3501
3324
3139
3021
2960
2918
2813
2589
2269
1917
1613
1440
1441
1574
1728
1814
1776
1637
1460
1360
1386
1521
1691
1817
1813
1681
1511
1393
1385
1504
1677
1809
1835
1731
1557
1398
1365
1452
1628
1810
1909
1870
1712
1528
1418
1438
1584
1781
1915
1903
1763
1584
1441
1438
1535
1751
1926
1962
1851
1670
1523
1487
1581
1741
1913
1985
1934
1774
1600
1505
1553
1723
1911
2032
2010
1874
1685
1535
1535
1664
1852
2005
2060
1973
1803
1648
1597
1669
1835
2007
2096
2039
1887
1722
1626
1651
1791
1984
2128
2135
2014
1851
1729
1712
1819
2005
2166
2205
2121
1977
1827
1773
1859
2019
2190
2256
2203
2053
1888
1807
1862
2032
2230
2357
2343
2199
2007
1872
1859
1974
2149
2295
2325
2240
2077
1907
1837
1886
2032
2189
2250
2183
1998
1799
1684
1695
1824
1975
2043
1989
1840
1676
1535
1523
1654
1851
1984
1982
1851
1639
1446
1377
1466
1647
1821
1888
1821
1650
1485
1393
1457
1632
1813
1917
1887
1749
1565
1434
1433
1568
1749
1875
1885
1766
1581
1423
1392
1490
1682
1847
1907
1847
1683
1508
1410
1450
1601
1774
1875
1867
1735
1555
1424
1440
1577
1747
1873
1877
1766
1606
1459
1429
1528
1712
1862
1923
1857
1686
1530
1467
1523
1692
1855
1939
1904
1766
1589
1462
1472
1612
1795
1946
1968
1867
1686
1526
1499
1616
1806
1957
1999
1904
1737
1581
1488
1535
1685
1846
1935
1904
1771
1606
1497
1501
1629
1813
1956
1973
1862
1695
1535
1520
1616
1789
1937
1979
1910
1761
1600
1498
1535
1713
1909
2028
2003
1856
1677
1574
1584
1698
1871
1982
1975
1865
1687
1535
1520
1639
1831
2014
2069
1969
1779
1603
1521
1590
1763
1941
2046
2015
1877
1714
1590
1593
1715
1873
1989
1991
1872
1691
1535
1512
1629
1822
2000
2079
1993
1820
1636
1535
1597
1744
1931
2026
1984
1817
1638
1552
1584
1712
1873
2000
2003
1883
1705
1562
1535
1650
1821
1983
2038
1952
1783
1636
1574
1637
1798
1968
2065
2015
1850
1654
1535
1577
1717
1904
2039
2063
1950
1787
1648
1626
1744
1907
2041
2091
1993
1823
1674
1618
1686
1843
2003
2085
2026
1856
1648
1503
1506
1639
1808
1927
1922
1805
1637
1510
1491
1603
1782
1924
1965
1878
1710
1535
1489
1575
1746
1909
1984
1925
1778
1599
1487
1515
1658
1839
1969
1971
1850
1676
1535
1535
1647
1807
1943
1961
1847
1663
1482
1419
1515
1719
1972
2173
2276
2291
2320
2435
2704
3067
3446
3767
3853
3631
3267
2939
2701
2544
2443
2346
2186
1935
1654
1410
1329
1399
1573
1749
1833
1781
1629
1471
1397
1441
1589
1778
1911
1894
1746
1553
1405
1392
1501
1689
1841
1872
1802
1645
1483
1421
1494
1670
1840
1904
1853
1686
1513
1418
1457
1622
1795
1898
1901
1798
1635
1515
1503
1625
1802
1936
1937
1830
1645
1489
1461
1557
1738
1915
1984
1933
1761
1573
1460
1492
1643
1827
1936
1922
1787
1630
1520
1520
1651
1823
1967
1991
1901
1751
1611
1565
1639
1799
1985
2084
2026
1847
1651
1571
1617
1779
1968
2095
2085
1953
1776
1664
1666
1792
1974
2115
2145
2057
1892
1744
1689
1776
1952
2123
2189
2141
1999
1833
1749
1807
1965
2130
2230
2215
2091
1925
1826
1839
1974
2127
2253
2259
2151
1973
1819
1775
1856
2021
2178
2223
2123
1930
1728
1627
1659
1791
1943
2027
1988
1835
1638
1493
1477
1594
1765
1899
1919
1811
1637
1474
1422
1487
1680
1846
1908
1840
1667
1483
1394
1453
1627
1807
1906
1894
1785
1637
1509
1499
1610
1765
1885
1899
1801
1639
1487
1454
1535
1738
1920
1974
1902
1728
1561
1483
1534
1694
1863
1959
1922
1778
1608
1487
1499
1637
1827
1971
1965
1837
1648
1495
1487
1616
1808
1977
2030
1931
1746
1609
1535
1621
1786
1959
2058
2021
1879
1710
1586
1602
1750
1935
2064
2067
1946
1777
1633
1603
1705
1891
2060
2113
2019
1840
1687
1631
1706
1872
2029
2092
2039
1893
1726
1617
1646
1781
1967
2102
2107
1980
1808
1669
1644
1744
1910
2064
2112
2035
1870
1706
1631
1695
1856
2032
2123
2087
1938
1757
1635
1653
1791
1959
2089
2098
1984
1807
1678
1639
1714
1871
2017
2083
2007
1851
1692
1616
1670
1822
1989
2086
2035
1874
1691
1583
1616
1776
1968
2102
2098
1967
1771
1619
1600
1709
1874
2027
2079
1989
1807
1648
1587
1648
1807
1971
2064
2014
1856
1679
1577
1606
1749
1936
2067
2091
1962
1764
1614
1594
1723
1903
2067
2111
2012
1836
1663
1606
1677
1839
2018
2139
2107
1963
1810
1721
1757
1899
2075
2192
2185
2058
1875
1746
1721
1811
1986
2143
2197
2117
1950
1794
1739
1793
1942
2099
2160
2096
1951
1789
1696
1727
1869
2064
2182
2161
2027
1847
1730
1726
1856
2053
2199
2229
2128
1951
1799
1749
1829
1986
2158
2239
2192
2034
1854
1760
1794
1937
2115
2219
2192
2043
1854
1698
1680
1791
1978
2177
2301
2320
2304
2335
2480
2761
3165
3598
3981
4086
3899
3610
3387
3262
3179
3081
2907
2640
2315
2000
1785
1731
1817
2000
2160
2203
2103
1922
1767
1711
1794
1971
2161
2244
2191
2035
1878
1814
1887
2055
2249
2367
2368
2251
2093
1983
2011
2163
2372
2557
2646
2603
2448
2311
2279
2385
2583
2766
2862
2827
2682
2530
2469
2546
2743
2955
3119
3120
2984
2807
2683
2694
2830
3024
3202
3258
3183
3008
2861
2820
2903
3089
3279
3399
3361
3188
2999
2896
2939
3115
3314
3455
3451
3291
3092
2961
2963
3101
3306
3481
3520
3386
3175
3019
2999
3111
3319
3533
3623
3536
3347
3167
3071
3125
3296
3506
3671
3666
3504
3280
3127
3120
3263
3489
3678
3697
3581
3390
3227
3177
3279
3488
3728
3814
3700
3479
3269
3157
3189
3344
3554
3693
3651
3474
3264
3118
3104
3215
3381
3521
3518
3353
3136
2945
2867
2925
3099
3259
3297
3181
2950
2736
2627
2640
2763
2931
3037
3014
2869
2672
2514
2487
2586
2755
2901
2925
2811
2620
2450
2385
2449
2622
2779
2841
2755
2589
2422
2337
2382
2527
2695
2789
2732
2559
2382
2262
2267
2379
2538
2672
2688
2582
2407
2258
2235
2329
2496
2657
2717
2620
2416
2221
2129
2183
2346
2512
2620
2592
2448
2270
2148
2160
2295
2471
2607
2606
2480
2290
2124
2082
2173
2333
2486
2534
2445
2265
2099
2032
2073
2218
2383
2475
2435
2283
2096
1965
1963
2094
2267
2389
2384
2271
2113
1983
1946
2029
2187
2351
2411
2332
2159
1974
1888
1920
2076
2234
2318
2271
2109
1913
1787
1802
1939
2128
2243
2239
2123
1949
1803
1775
1858
2027
2186
2227
2142
1949
1764
1680
1747
1917
2092
2176
2153
2026
1851
1725
1710
1828
2010
2130
2130
1998
1803
1637
1597
1684
1853
2014
2069
1990
1831
1680
1615
1658
1806
1968
2063
2020
1860
1678
1568
1585
1711
1875
2000
1997
1871
1699
1573
1572
1678
1847
2000
2018
1931
1750
1591
1534
1626
1799
1973
2067
2022
1859
1659
1535
1559
1692
1874
1991
1984
1854
1678
1535
1505
1595
1740
1872
1914
1823
1635
1454
1358
1403
1566
1744
1856
1839
1701
1520
1389
1403
1535
1730
1856
1853
1728
1535
1408
1392
1494
1667
1810
1847
1751
1584
1426
1395
1492
1664
1842
1930
1890
1732
1535
1418
1429
1535
1695
1802
1791
1701
1600
1565
1677
1922
2257
2579
2815
2941
2965
2953
2995
3103
3223
3273
3175
2864
2431
1990
1667
1522
1533
1633
1696
1648
1503
1328
1186
1171
1281
1456
1605
1649
1563
1379
1210
1150
1207
1360
1521
1605
1567
1418
1238
1122
1135
1279
1470
1600
1590
1456
1267
1140
1121
1225
1419
1589
1633
1525
1343
1171
1115
1185
1355
1535
1631
1591
1456
1296
1202
1242
1385
1567
1677
1655
1502
1317
1199
1205
1327
1503
1659
1681
1582
1408
1239
1172
1247
1419
1601
1680
1626
1476
1319
1243
1293
1440
1621
1715
1680
1535
1363
1247
1259
1405
1602
1750
1791
1708
1535
1411
1405
1489
1639
1792
1866
1807
1663
1508
1427
1471
1639
1841
1975
1986
1887
1729
1616
1616
1735
1905
2047
2058
1945
1787
1644
1616
1727
1904
2065
2133
2078
1925
1776
1694
1718
1834
2001
2102
2078
1927
1742
1589
1567
1660
1811
1918
1906
1777
1587
1415
1360
1421
1577
1729
1796
1728
1535
1361
1261
1309
1463
1643
1744
1725
1591
1403
1280
1267
1376
1571
1729
1762
1667
1501
1357
1311
1399
1565
1726
1791
1728
1571
1398
1328
1369
1523
1712
1815
1779
1653
1488
1395
1407
1494
1652
1777
1813
1728
1535
1374
1329
1437
1621
1795
1850
1754
1584
1413
1346
1401
1561
1729
1823
1791
1643
1475
1373
1378
1501
1695
1850
1875
1763
1579
1425
1392
1487
1659
1810
1869
1797
1634
1456
1382
1441
1623
1807
1898
1845
1713
1535
1434
1463
1595
1760
1877
1867
1743
1570
1424
1414
1520
1712
1872
1904
1797
1597
1420
1353
1424
1599
1777
1872
1830
1676
1481
1360
1391
1533
1724
1845
1840
1715
1509
1346
1319
1408
1587
1767
1840
1782
1625
1472
1413
1474
1623
1773
1830
1774
1616
1429
1322
1350
1491
1668
1794
1798
1667
1475
1319
1306
1415
1603
1758
1798
1709
1529
1361
1295
1344
1498
1666
1746
1722
1581
1421
1334
1363
1479
1648
1762
1763
1627
1443
1323
1328
1451
1643
1792
1835
1742
1563
1382
1309
1362
1531
1712
1799
1776
1623
1442
1329
1360
1493
1664
1778
1791
1680
1501
1365
1367
1474
1654
1825
1875
1776
1600
1438
1392
1483
1668
1861
1984
1956
1810
1648
1520
1535
1699
1889
2019
2015
1887
1695
1569
1559
1665
1840
1968
1984
1877
1694
1527
1475
1535
1694
1854
1938
1900
1739
1559
1450
1472
1606
1776
1891
1892
1779
1615
1478
1473
1588
1776
1920
1942
1838
1667
1509
1467
1535
1703
1873
1939
1886
1738
1582
1502
1570
1719
1876
1959
1913
1746
1534
1389
1375
1499
1741
1983
2140
2195
2221
2285
2450
2747
3120
3472
3723
3712
3479
3212
2960
2789
2662
2555
2411
2178
1890
1607
1422
1390
1472
1631
1779
1810
1707
1524
1387
1347
1425
1589
1748
1824
1761
1602
1426
1346
1397
1559
1740
1855
1831
1681
1484
1347
1344
1462
1653
1802
1822
1712
1535
1383
1349
1465
1650
1819
1898
1845
1681
1493
1375
1413
1568
1744
1856
1840
1702
1518
1386
1379
1505
1685
1829
1862
1763
1594
1446
1398
1493
1680
1841
1894
1808
1646
1471
1392
1442
1606
1803
1903
1873
1740
1535
1407
1411
1554
1763
1904
1923
1814
1635
1486
1455
1552
1724
1872
1923
1853
1712
1578
1531
1600
1750
1918
2011
1975
1839
1689
1600
1629
1772
1947
2094
2110
1983
1794
1649
1638
1771
1977
2161
2223
2149
1967
1786
1697
1744
1885
2041
2137
2113
1973
1801
1691
1712
1841
2007
2128
2112
1966
1754
1575
1508
1583
1741
1890
1939
1850
1675
1503
1423
1468
1616
1783
1881
1852
1717
1533
1403
1405
1520
1701
1828
1846
1751
1574
1408
1365
1447
1607
1759
1821
1761
1605
1439
1360
1424
1595
1777
1878
1857
1731
1571
1435
1451
1601
1806
1953
1968
1855
1667
1505
1453
1534
1710
1866
1917
1841
1679
1522
1463
1531
1707
1875
1973
1941
1806
1631
1518
1534
1677
1863
2031
2057
1919
1712
1565
1535
1633
1794
1936
1984
1925
1758
1597
1522
1597
1750
1941
2057
2038
1895
1721
1611
1641
1771
1910
2032
2029
1907
1739
1613
1601
1709
1872
2017
2075
1975
1801
1647
1584
1667
1860
2039
2122
2058
1873
1680
1554
1564
1697
1873
2004
2023
1921
1761
1615
1585
1682
1874
2036
2109
2046
1887
1713
1639
1697
1841
1989
2075
2031
1871
1695
1601
1639
1793
1977
2101
2102
1997
1819
1680
1651
1758
1935
2089
2126
2032
1851
1697
1645
1716
1888
2080
2159
2119
1953
1774
1663
1712
1863
2047
2190
2199
2083
1903
1753
1715
1824
1997
2165
2199
2112
1943
1776
1715
1779
1936
2119
2197
2143
1999
1844
1757
1803
1952
2128
2231
2212
2065
1875
1744
1724
1835
2013
2176
2220
2127
1955
1808
1760
1811
1973
2149
2227
2176
2031
1863
1765
1806
1966
2149
2271
2251
2118
1931
1801
1797
1922
2115
2257
2279
2160
1968
1803
1741
1802
1954
2109
2176
2127
1963
1776
1663
1677
1814
2003
2122
2107
1951
1763
1638
1631
1763
1955
2105
2128
2030
1849
1699
1649
1727
1899
2064
2122
2046
1876
1712
1641
1697
1858
2037
2135
2113
1973
1818
1702
1715
1831
1977
2085
2073
1945
1757
1594
1559
1671
1904
2159
2339
2413
2415
2448
2585
2851
3239
3677
4046
4095
3842
3466
3125
2880
2719
2608
2496
2326
2094
1799
1577
1487
1556
1721
1873
1946
1891
1728
1556
1475
1535
1712
1883
1979
1947
1808
1629
1502
1493
1605
1770
1899
1908
1803
1633
1487
1450
1535
1729
1900
1966
1889
1695
1493
1392
1414
1566
1745
1854
1824
1701
1535
1406
1405
1529
1712
1851
1872
1751
1575
1411
1363
1456
1643
1808
1861
1765
1596
1429
1359
1423
1599
1773
1851
1814
1653
1456
1331
1342
1471
1648
1773
1783
1683
1514
1363
1335
1431
1618
1774
1813
1741
1583
1414
1331
1372
1527
1711
1798
1760
1616
1447
1339
1354
1482
1655
1777
1791
1666
1474
1349
1346
1471
1654
1796
1834
1749
1571
1409
1354
1425
1595
1767
1863
1808
1650
1463
1345
1346
1486
1674
1804
1797
1655
1453
1282
1232
1329
1521
1681
1694
1564
1339
1125
1009
1042
1182
1344
1430
1387
1222
1015
893
877
992
1166
1295
1309
1186
1011
859
835
914
1088
1236
1267
1174
998
844
784
848
1006
1179
1264
1219
1072
892
781
814
954
1141
1263
1257
1141
974
826
807
910
1093
1259
1296
1213
1043
876
803
865
1035
1211
1301
1265
1114
947
848
882
1023
1213
1354
1361
1231
1035
885
853
944
1136
1301
1358
1278
1117
965
923
997
1165
1346
1458
1418
1250
1060
946
967
1111
1296
1424
1435
1313
1143
1011
985
1088
1280
1441
1461
1359
1213
1083
1041
1122
1296
1472
1562
1493
1349
1195
1105
1151
1303
1512
1657
1650
1498
1296
1168
1171
1293
1472
1623
1671
1573
1392
1229
1170
1261
1447
1642
1741
1707
1553
1379
1286
1327
1485
1677
1782
1756
1613
1440
1331
1350
1488
1678
1839
1867
1769
1587
1441
1381
1449
1614
1787
1859
1808
1654
1479
1394
1430
1595
1783
1915
1914
1776
1581
1440
1438
1563
1753
1907
1937
1835
1665
1520
1483
1584
1733
1883
1968
1931
1791
1631
1525
1535
1683
1863
1987
1971
1841
1677
1535
1535
1654
1840
1985
1995
1904
1740
1598
1535
1632
1792
1967
2017
1963
1811
1658
1581
1634
1798
1989
2115
2098
1940
1767
1638
1633
1760
1936
2081
2097
1989
1807
1651
1600
1670
1825
1982
2045
1982
1822
1651
1555
1600
1763
1943
2039
2004
1875
1694
1553
1520
1647
1828
1982
2001
1903
1744
1600
1559
1658
1847
2010
2079
2011
1859
1673
1584
1616
1752
1923
2037
2030
1907
1744
1611
1593
1683
1838
1953
1969
1875
1746
1664
1742
1999
2373
2755
3034
3184
3200
3166
3171
3255
3377
3457
3388
3111
2685
2235
1891
1731
1727
1824
1913
1909
1798
1633
1484
1437
1522
1701
1871
1949
1893
1725
1535
1463
1521
1685
1858
1957
1933
1807
1627
1499
1489
1607
1786
1922
1937
1838
1679
1530
1516
1637
1820
1983
2037
1959
1782
1600
1502
1552
1727
1913
2012
1963
1815
1648
1535
1572
1701
1877
2003
2015
1903
1727
1585
1563
1653
1809
1969
2047
2005
1869
1701
1614
1655
1808
1987
2089
2061
1923
1759
1644
1652
1793
2010
2190
2225
2124
1936
1797
1782
1878
2055
2219
2256
2167
2002
1850
1790
1840
2005
2199
2323
2303
2176
2022
1907
1924
2074
2263
2385
2380
2253
2079
1936
1924
2066
2273
2465
2543
2476
2303
2124
2047
2133
2301
2479
2559
2531
2375
2202
2098
2122
2261
2432
2542
2525
2397
2202
2031
1984
2074
2236
2381
2399
2267
2053
1860
1791
1855
2009
2160
2229
2165
1989
1799
1687
1713
1851
2012
2119
2087
1941
1761
1633
1626
1760
1953
2101
2143
2035
1852
1695
1650
1719
1878
2037
2141
2106
1957
1773
1666
1687
1829
2015
2145
2127
1995
1808
1664
1638
1750
1930
2087
2128
2047
1906
1762
1711
1782
1923
2083
2147
2083
1923
1772
1685
1726
1882
2070
2192
2192
2061
1869
1730
1745
1872
2041
2189
2214
2112
1931
1776
1706
1771
1930
2105
2192
2155
2000
1833
1734
1781
1931
2112
2222
2203
2069
1899
1781
1775
1890
2077
2223
2256
2160
1973
1806
1751
1840
2005
2175
2240
2171
1999
1835
1743
1776
1909
2087
2209
2214
2100
1933
1783
1754
1853
2031
2179
2208
2098
1918
1764
1738
1822
1990
2130
2192
2145
1998
1831
1743
1777
1918
2102
2213
2192
2068
1897
1760
1745
1859
2031
2166
2192
2103
1926
1770
1728
1808
1980
2138
2202
2142
1985
1826
1743
1795
1952
2125
2227
2214
2070
1874
1729
1723
1844
2027
2182
2206
2114
1933
1766
1722
1805
1987
2179
2271
2224
2076
1903
1806
1842
1991
2163
2266
2238
2066
1857
1736
1755
1885
2059
2159
2148
2023
1828
1675
1639
1733
1902
2065
2145
2087
1917
1743
1649
1707
1851
2011
2109
2070
1904
1728
1623
1649
1791
1975
2117
2142
2021
1829
1671
1627
1710
1873
2056
2106
2016
1842
1664
1555
1578
1691
1856
1955
1927
1817
1707
1695
1831
2103
2449
2791
3023
3120
3105
3088
3152
3298
3465
3532
3417
3105
2661
2227
1918
1787
1814
1911
1970
1909
1751
1589
1475
1482
1607
1782
1914
1915
1798
1622
1475
1443
1535
1710
1882
1949
1859
1677
1495
1424
1482
1642
1808
1913
1904
1766
1585
1463
1488
1647
1830
1972
1990
1863
1678
1534
1488
1584
1754
1910
1983
1915
1747
1579
1491
1535
1707
1894
1993
1959
1797
1623
1510
1559
1687
1856
1979
1973
1851
1679
1533
1504
1615
1809
1974
2019
1930
1759
1602
1527
1593
1733
1899
1998
1972
1819
1623
1488
1504
1666
1867
2016
2021
1890
1706
1574
1559
1679
1849
2000
2047
1978
1840
1695
1644
1721
1872
2032
2112
2074
1947
1794
1712
1746
1886
2063
2193
2206
2087
1904
1770
1744
1842
2019
2175
2215
2128
1957
1783
1710
1763
1911
2070
2158
2127
1962
1766
1646
1653
1783
1937
2042
2023
1872
1653
1481
1433
1523
1694
1831
1847
1746
1535
1367
1303
1366
1523
1701
1789
1732
1577
1406
1307
1343
1484
1673
1785
1766
1627
1451
1313
1314
1422
1601
1779
1872
1817
1648
1451
1342
1374
1519
1701
1785
1746
1623
1475
1391
1424
1569
1728
1825
1792
1661
1489
1386
1395
1535
1718
1862
1901
1795
1618
1451
1394
1473
1648
1817
1889
1856
1695
1506
1401
1434
1601
1793
1918
1898
1773
1595
1443
1421
1530
1712
1865
1904
1822
1657
1502
1452
1527
1693
1858
1930
1877
1726
1569
1487
1535
1699
1875
1987
1977
1838
1650
1520
1530
1665
1857
2002
2043
1938
1755
1589
1535
1622
1803
1993
2105
2059
1883
1671
1535
1565
1704
1875
1994
1981
1866
1709
1601
1604
1723
1907
2041
2058
1951
1792
1647
1585
1671
1843
2017
2095
2030
1872
1699
1633
1679
1818
1995
2098
2070
1908
1718
1590
1591
1719
1903
2053
2076
1970
1802
1664
1641
1725
1899
2064
2119
2043
1883
1697
1585
1616
1776
1971
2105
2110
1983
1802
1667
1669
1797
1970
2115
2122
1999
1829
1677
1625
1712
1883
2053
2103
2037
1878
1705
1618
1666
1824
1998
2096
2069
1930
1759
1641
1647
1780
1981
2127
2146
2034
1847
1679
1639
1733
1907
2079
2161
2095
1919
1740
1647
1703
1872
2054
2133
2092
1920
1713
1579
1570
1687
1863
1999
2017
1908
1741
1592
1535
1629
1805
1971
2031
1953
1787
1622
1575
1648
1827
2015
2114
2086
1933
1753
1613
1614
1735
1931
2072
2079
1958
1796
1686
1679
1779
1937
2073
2099
1983
1791
1616
1535
1632
1866
2150
2371
2484
2509
2527
2635
2863
3191
3569
3959
4095
3876
3485
3137
2855
2672
2559
2496
2364
2170
1915
1680
1559
1600
1745
1904
1984
1946
1808
1634
1535
1584
1725
1909
2041
2047
1925
1750
1611
1589
1686
1844
1995
2060
1975
1813
1639
1535
1600
1771
1957
2064
2032
1904
1737
1632
1640
1754
1919
2028
2033
1920
1770
1626
1598
1674
1841
1977
2023
1937
1787
1635
1577
1661
1831
2002
2087
2023
1866
1699
1608
1648
1786
1974
2111
2118
1999
1811
1680
1671
1780
1966
2130
2180
2098
1923
1761
1712
1786
1959
2147
2244
2207
2045
1854
1733
1740
1878
2071
2209
2235
2143
1979
1849
1837
1936
2134
2318
2372
2287
2112
1962
1902
1978
2161
2352
2441
2391
2241
2077
1975
2003
2161
2366
2511
2512
2384
2198
2058
2030
2135
2304
2447
2458
2352
2186
2023
1953
2009
2182
2332
2405
2335
2160
1959
1841
1847
1975
2141
2240
2207
2047
1834
1664
1627
1741
1918
2071
2110
2003
1819
1649
1597
1680
1856
2024
2106
2041
1879
1713
1623
1647
1777
1935
2047
2039
1914
1744
1621
1627
1745
1915
2064
2091
1994
1822
1680
1623
1680
1846
2000
2047
1954
1776
1633
1581
1647
1807
1998
2128
2145
2014
1811
1649
1607
1701
1866
2013
2065
1998
1837
1680
1621
1690
1868
2047
2138
2089
1930
1761
1662
1687
1829
2003
2129
2126
1994
1823
1706
1687
1794
1973
2139
2176
2087
1904
1735
1665
1724
1882
2085
2192
2155
1984
1798
1699
1728
1874
2058
2167
2160
2019
1826
1679
1675
1814
2006
2160
2186
2085
1907
1759
1713
1793
1955
2128
2185
2118
1946
1773
1702
1767
1927
2112
2203
2156
1994
1806
1680
1707
1847
2032
2166
2180
2092
1923
1788
1747
1829
1984
2123
2175
2125
1963
1782
1689
1733
1872
2047
2159
2147
2021
1847
1729
1729
1840
2015
2153
2172
2070
1897
1742
1703
1790
1967
2125
2192
2129
1959
1803
1713
1766
1909
2064
2159
2134
2017
1863
1735
1747
1858
2043
2191
2196
2078
1899
1748
1722
1813
1983
2150
2194
2126
1954
1789
1723
1791
1954
2138
2239
2205
2061
1879
1776
1806
1953
2123
2228
2203
2067
1874
1746
1746
1871
2070
2250
2325
2251
2064
1872
1801
1852
2036
2229
2341
2314
2167
1963
1819
1808
1919
2093
2218
2223
2101
1920
1767
1725
1807
1978
2142
2181
2074
1871
1680
1607
1661
1805
1959
2039
1991
1857
1701
1610
1635
1776
1959
2074
2057
1930
1766
1619
1585
1684
1860
2010
2061
1962
1780
1602
1520
1600
1781
1977
2080
2031
1873
1679
1553
1533
1649
1816
1952
2000
1955
1867
1863
2015
2307
2677
3034
3303
3411
3381
3301
3257
3267
3313
3299
3111
2767
2362
1970
1697
1593
1639
1765
1871
1856
1729
1571
1426
1419
1530
1703
1856
1895
1786
1603
1433
1363
1424
1594
1767
1862
1837
1698
1519
1406
1441
1587
1776
1902
1894
1771
1584
1441
1441
1581
1755
1903
1926
1827
1655
1498
1442
1499
1664
1844
1963
1935
1798
1631
1531
1565
1698
1875
2007
2015
1891
1713
1585
1567
1666
1831
1978
2023
1955
1808
1636
1535
1621
1792
1985
2096
2058
1906
1744
1665
1712
1851
2032
2150
2128
1984
1798
1665
1651
1786
1997
2175
2231
2157
1984
1842
1792
1858
2017
2190
2272
2229
2078
1905
1824
1878
2045
2243
2361
2351
2224
2045
1926
1936
2057
2233
2384
2418
2314
2149
2007
1982
2071
2235
2391
2466
2413
2268
2103
2010
2058
2203
2367
2467
2423
2272
2091
1951
1920
2023
2188
2320
2327
2203
1994
1815
1751
1818
1970
2113
2153
2064
1872
1686
1620
1674
1841
2029
2149
2112
1952
1754
1600
1582
1712
1907
2065
2083
1987
1815
1654
1614
1709
1902
2090
2158
2079
1920
1746
1648
1687
1838
2003
2112
2090
1943
1761
1641
1649
1779
1974
2127
2173
2089
1906
1745
1695
1776
1943
2102
2162
2098
1930
1751
1677
1731
1899
2097
2211
2202
2065
1885
1748
1744
1853
2034
2182
2203
2099
1926
1783
1754
1850
2018
2180
2229
2145
1974
1813
1745
1821
1968
2149
2265
2252
2099
1905
1778
1774
1875
2041
2170
2197
2094
1930
1798
1777
1871
2043
2195
2230
2160
1981
1805
1718
1776
1949
2131
2245
2222
2055
1856
1734
1749
1873
2047
2187
2194
2084
1897
1736
1712
1830
2010
2172
2224
2159
1970
1792
1711
1776
1936
2106
2197
2173
2023
1840
1715
1717
1856
2005
2120
2134
2034
1882
1758
1732
1841
2029
2178
2224
2143
1959
1787
1706
1765
1919
2096
2205
2180
2030
1840
1727
1729
1847
2027
2170
2201
2112
1939
1781
1745
1831
2006
2165
2221
2138
1965
1788
1712
1767
1933
2128
2239
2207
2055
1890
1800
1828
1969
2157
2257
2235
2097
1919
1773
1741
1839
2000
2137
2154
2064
1878
1686
1600
1664
1837
2000
2087
2022
1872
1695
1606
1647
1778
1951
2075
2071
1951
1781
1638
1616
1717
1904
2087
2139
2045
1862
1693
1615
1659
1823
1997
2096
2042
1881
1699
1614
1635
1755
1913
2019
2009
1881
1721
1631
1673
1860
2145
2433
2640
2766
2800
2831
2947
3169
3440
3684
3715
3502
3133
2694
2326
2110
2045
2087
2100
2005
1825
1615
1454
1439
1569
1775
1937
1990
1894
1718
1535
1468
1532
1707
1885
1978
1954
1812
1643
1535
1561
1694
1875
1999
1999
1868
1697
1584
1575
1693
1882
2036
2073
1968
1789
1631
1583
1651
1805
1961
2026
1977
1841
1693
1610
1642
1778
1953
2064
2045
1911
1725
1602
1589
1710
1887
2032
2067
1978
1818
1666
1615
1705
1888
2059
2128
2061
1901
1735
1668
1698
1843
2014
2127
2097
1951
1782
1676
1680
1809
2001
2149
2170
2058
1874
1723
1667
1758
1937
2125
2206
2153
1993
1824
1747
1794
1943
2139
2280
2285
2150
1981
1856
1873
2019
2211
2358
2409
2302
2123
1954
1898
1985
2158
2304
2371
2322
2190
2029
1939
1998
2149
2321
2419
2383
2207
1995
1839
1808
1911
2081
2201
2215
2107
1906
1731
1670
1727
1866
2000
2060
1968
1774
1590
1496
1535
1687
1843
1927
1887
1744
1582
1458
1472
1607
1783
1919
1938
1841
1663
1498
1441
1520
1702
1882
1957
1887
1703
1510
1426
1479
1664
1872
1996
1983
1831
1657
1523
1508
1614
1776
1919
1937
1839
1665
1499
1451
1553
1741
1914
1984
1922
1762
1587
1486
1526
1680
1859
1960
1936
1797
1614
1513
1535
1681
1857
1997
1999
1872
1701
1572
1535
1646
1822
1971
2032
1965
1795
1645
1568
1618
1777
1937
2034
1995
1846
1670
1557
1570
1712
1897
2033
2045
1925
1742
1587
1552
1643
1808
1962
2013
1942
1787
1620
1566
1639
1815
1993
2090
2026
1856
1664
1565
1596
1733
1913
2033
2064
1966
1793
1646
1610
1694
1859
1999
2032
1946
1789
1649
1588
1651
1803
1959
2043
2010
1860
1693
1595
1628
1762
1950
2096
2106
1984
1808
1665
1663
1765
1940
2087
2117
2028
1859
1714
1664
1727
1876
2065
2171
2135
1977
1793
1676
1683
1823
1999
2115
2112
1987
1815
1670
1637
1739
1915
2070
2117
2024
1861
1701
1636
1712
1875
2039
2138
2101
1951
1778
1680
1717
1859
2032
2148
2157
2039
1878
1743
1710
1783
1934
2065
2095
1999
1843
1690
1616
1669
1820
1968
2032
1968
1809
1631
1526
1569
1718
1903
2032
2021
1888
1701
1583
1574
1690
1855
1984
2019
1951
1791
1621
1569
1673
1866
2039
2112
2047
1883
1710
1600
1627
1770
1936
2043
2027
1891
1714
1597
1584
1694
1875
2035
2112
2097
2027
2019
2130
2394
2782
3193
3520
3658
3574
3428
3302
3225
3200
3168
3020
2751
2391
2042
1769
1647
1691
1833
1965
1979
1904
1765
1605
1519
1589
1738
1903
1968
1903
1735
1569
1502
1572
1737
1904
2000
1975
1824
1635
1497
1494
1637
1846
1994
2017
1903
1719
1574
1525
1603
1791
1959
2032
1955
1776
1600
1520
1568
1723
1903
2019
2013
1902
1714
1570
1535
1662
1840
1975
2015
1927
1748
1589
1535
1645
1810
1981
2058
1984
1813
1648
1587
1637
1787
1955
2047
2030
1904
1727
1616
1616
1746
1946
2112
2145
2031
1849
1683
1623
1705
1883
2066
2159
2112
1968
1801
1723
1771
1923
2112
2238
2215
2075
1904
1808
1829
1962
2149
2275
2302
2208
2055
1911
1888
1995
2183
2359
2419
2351
2161
1968
1888
1948
2112
2294
2414
2391
2254
2062
1920
1904
2013
2167
2279
2272
2157
1974
1819
1767
1832
1970
2112
2134
2028
1837
1635
1530
1571
1724
1904
2005
1971
1823
1647
1507
1500
1617
1805
1939
1944
1840
1680
1535
1500
1579
1733
1879
1921
1858
1700
1527
1463
1535
1698
1879
1984
1946
1795
1616
1498
1520
1652
1815
1939
1969
1875
1712
1571
1527
1627
1806
1964
2013
1929
1775
1631
1559
1613
1760
1927
2032
2007
1887
1725
1611
1621
1749
1925
2064
2081
1968
1793
1645
1613
1706
1890
2064
2103
2014
1851
1697
1627
1713
1884
2059
2149
2112
1957
1779
1667
1681
1824
2007
2150
2169
2061
1894
1757
1732
1844
2017
2163
2192
2099
1915
1763
1712
1778
1940
2110
2189
2135
1979
1795
1681
1712
1867
2067
2210
2219
2098
1914
1759
1731
1847
2033
2191
2228
2146
1962
1790
1717
1790
1980
2155
2240
2198
2038
1856
1747
1772
1921
2118
2244
2231
2096
1911
1775
1766
1873
2054
2192
2226
2151
1990
1834
1770
1842
2000
2177
2253
2214
2083
1908
1809
1839
1965
2128
2249
2245
2113
1931
1796
1798
1912
2096
2245
2277
2190
2013
1840
1767
1830
1988
2171
2259
2211
2061
1888
1783
1808
1953
2132
2254
2239
2102
1925
1824
1856
1990
2173
2317
2345
2225
2038
1842
1776
1840
2010
2203
2288
2236
2078
1893
1794
1825
1954
2119
2209
2165
2022
1836
1707
1686
1792
1973
2128
2154
2065
1905
1745
1693
1759
1923
2097
2153
2089
1921
1759
1680
1735
1903
2079
2170
2130
1980
1815
1735
1742
1847
2013
2160
2183
2094
1903
1735
1666
1727
1869
1997
2043
1996
1875
1783
1792
1968
2275
2636
2943
3152
3247
3265
3308
3423
3627
3833
3888
3665
3280
2847
2443
2155
2037
2047
2112
2096
1975
1782
1616
1535
1605
1766
1943
2055
2017
1886
1717
1591
1591
1709
1884
2013
2030
1923
1760
1626
1596
1686
1867
2035
2107
2032
1869
1689
1595
1629
1797
1996
2112
2071
1927
1744
1616
1623
1755
1954
2119
2139
2027
1842
1702
1655
1738
1888
2064
2141
2096
1950
1801
1727
1785
1942
2123
2218
2190
2034
1856
1735
1744
1874
2066
2211
2225
2096
1891
1719
1687
1793
1987
2161
2213
2151
1998
1847
1773
1824
1984
2163
2270
2233
2085
1913
1809
1826
1974
2192
2338
2368
2256
2096
1974
1963
2078
2255
2409
2458
2375
2192
2012
1958
2023
2187
2352
2453
2416
2283
2113
2003
2047
2207
2410
2540
2544
2432
2247
2083
2035
2128
2289
2437
2480
2379
2197
2002
1906
1938
2096
2255
2317
2257
2109
1921
1798
1789
1872
2007
2112
2098
1966
1772
1616
1584
1665
1813
1959
2002
1903
1719
1554
1481
1535
1713
1894
1979
1929
1770
1585
1472
1488
1645
1838
1977
1983
1856
1664
1511
1498
1616
1796
1951
1998
1904
1725
1575
1521
1599
1767
1924
2014
1968
1810
1629
1498
1499
1631
1821
1967
1989
1895
1729
1583
1535
1634
1793
1929
1965
1875
1712
1574
1522
1597
1746
1913
1984
1937
1808
1653
1559
1598
1730
1904
2020
2017
1904
1729
1589
1535
1637
1795
1935
1953
1855
1680
1515
1463
1562
1735
1922
2020
1999
1863
1696
1583
1573
1690
1851
1968
1957
1815
1641
1517
1510
1631
1815
1972
2007
1919
1749
1597
1535
1601
1763
1939
2028
1968
1797
1611
1520
1577
1719
1888
1992
2006
1895
1710
1571
1555
1667
1861
2015
2064
1953
1781
1627
1587
1655
1808
1975
2065
2027
1869
1691
1587
1615
1751
1936
2060
2039
1893
1718
1584
1593
1723
1920
2087
2121
1999
1792
1605
1535
1616
1773
1955
2058
2015
1874
1701
1602
1630
1774
1951
2063
2031
1897
1728
1601
1606
1747
1955
2131
2172
2046
1838
1632
1566
1664
1857
2043
2128
2079
1917
1744
1667
1712
1857
2031
2128
2085
1946
1785
1671
1678
1807
1988
2159
2202
2111
1931
1770
1727
1807
1974
2142
2197
2131
1967
1776
1657
1711
1875
2077
2189
2144
1991
1799
1663
1631
1723
1885
2032
2060
1934
1747
1585
1554
1663
1843
2009
2085
2011
1835
1661
1579
1632
1795
1957
2070
2058
1926
1744
1619
1626
1757
1934
2083
2106
1998
1808
1648
1616
1712
1882
2039
2096
1995
1803
1607
1510
1575
1776
2033
2256
2382
2433
2459
2547
2755
3105
3504
3922
4085
3888
3508
3162
2897
2726
2631
2541
2397
2161
1867
1615
1487
1519
1672
1851
1984
1961
1811
1632
1519
1535
1669
1858
1996
2000
1885
1712
1563
1517
1597
1766
1922
1987
1919
1782
1641
1556
1591
1734
1920
2020
2005
1859
1681
1535
1562
1702
1886
2018
2043
1939
1760
1609
1599
1704
1891
2054
2113
2023
1856
1702
1650
1712
1863
2031
2129
2091
1921
1735
1633
1657
1798
1983
2120
2119
1984
1795
1664
1648
1763
1933
2096
2143
2081
1926
1763
1688
1753
1906
2090
2179
2138
1981
1805
1706
1733
1870
2053
2202
2234
2133
1953
1808
1774
1871
2042
2202
2265
2215
2053
1898
1839
1904
2064
2229
2334
2303
2160
1982
1891
1931
2101
2300
2432
2431
2302
2121
1975
1958
2064
2245
2415
2458
2370
2189
2013
1949
2000
2161
2323
2407
2331
2143
1925
1799
1811
1925
2084
2171
2128
1974
1801
1663
1629
1721
1897
2064
2094
1968
1783
1640
1602
1680
1841
2003
2071
2000
1838
1653
1535
1575
1727
1902
2028
2039
1923
1766
1628
1603
1707
1887
2034
2065
1967
1792
1639
1591
1674
1850
2034
2119
2064
1885
1694
1584
1631
1789
1959
2062
2042
1919
1755
1617
1607
1718
1920
2075
2087
1983
1819
1671
1611
1691
1861
2034
2112
2063
1904
1712
1615
1657
1809
1986
2101
2064
1925
1757
1648
1643
1757
1935
2075
2094
1973
1808
1661
1621
1701
1871
2037
2093
2007
1851
1680
1589
1623
1782
1965
2094
2068
1921
1723
1575
1571
1685
1872
2007
2037
1923
1735
1569
1499
1594
1787
1987
2064
1975
1788
1585
1481
1521
1689
1872
1988
1980
1851
1679
1556
1535
1648
1818
1968
2004
1910
1744
1591
1535
1648
1815
1968
2038
1983
1823
1653
1562
1607
1755
1956
2075
2034
1876
1682
1535
1564
1705
1904
2066
2096
1981
1792
1631
1593
1689
1885
2074
2160
2079
1906
1726
1627
1683
1843
2019
2119
2085
1936
1766
1671
1683
1824
2011
2145
2149
2031
1851
1729
1703
1799
1970
2127
2178
2112
1943
1786
1717
1761
1901
2067
2181
2169
2021
1840
1712
1694
1805
1973
2101
2104
1988
1826
1683
1645
1733
1902
2082
2138
2062
1885
1711
1643
1723
1885
2061
2138
2097
1939
1755
1631
1635
1772
1981
2143
2174
2060
1856
1695
1664
1759
1937
2108
2160
2070
1883
1694
1584
1605
1747
1923
2071
2115
2073
2037
2110
2336
2703
3135
3518
3743
3711
3509
3325
3207
3158
3117
2992
2766
2423
2035
1717
1535
1535
1681
1850
1949
1926
1802
1638
1534
1557
1698
1885
2017
2035
1930
1744
1583
1527
1617
1790
1950
1990
1895
1709
1554
1489
1567
1733
1925
2046
2015
1840
1631
1488
1503
1661
1873
2032
2039
1904
1713
1559
1525
1631
1808
1968
2021
1927
1754
1603
1553
1641
1803
1957
2027
1962
1801
1637
1535
1579
1728
1902
2015
2015
1898
1721
1567
1521
1628
1821
2009
2079
1982
1774
1591
1528
1621
1797
1966
2064
2005
1846
1678
1574
1607
1766
1958
2091
2089
1955
1769
1626
1616
1755
1945
2102
2149
2072
1906
1755
1705
1777
1953
2133
2224
2211
2091
1907
1789
1803
1945
2124
2243
2253
2127
1934
1819
1845
1969
2153
2298
2335
2233
2043
1886
1825
1883
2022
2163
2224
2160
1985
1802
1666
1680
1823
2005
2110
2059
1894
1687
1515
1471
1567
1738
1872
1894
1797
1631
1453
1389
1469
1648
1812
1871
1799
1634
1443
1347
1391
1535
1743
1857
1847
1722
1556
1429
1420
1535
1722
1856
1871
1757
1582
1405
1364
1462
1653
1824
1885
1841
1696
1535
1446
1471
1620
1805
1921
1908
1777
1603
1461
1455
1582
1771
1926
1954
1857
1689
1534
1494
1575
1749
1925
2006
1949
1791
1636
1558
1597
1727
1906
2031
2025
1890
1707
1584
1588
1713
1907
2047
2071
1940
1754
1607
1581
1691
1883
2047
2111
2028
1861
1675
1578
1646
1822
2016
2135
2122
1968
1774
1637
1645
1766
1953
2106
2123
2014
1846
1707
1677
1781
1974
2160
2210
2111
1920
1742
1658
1712
1879
2064
2170
2139
1993
1808
1696
1713
1859
2047
2194
2207
2102
1907
1742
1680
1765
1939
2112
2176
2115
1965
1808
1742
1802
1959
2138
2257
2241
2089
1890
1767
1771
1897
2096
2224
2236
2115
1929
1779
1729
1811
1987
2167
2221
2149
1965
1792
1733
1794
1956
2119
2194
2141
1980
1818
1721
1751
1889
2078
2219
2224
2105
1914
1766
1755
1882
2066
2240
2300
2219
2047
1867
1778
1843
1997
2186
2290
2264
2128
1955
1837
1855
1991
2185
2327
2352
2239
2042
1880
1849
1936
2113
2276
2325
2256
2097
1921
1843
1898
2065
2224
2289
2222
2047
1860
1754
1779
1920
2098
2197
2194
2087
1915
1776
1757
1875
2066
2224
2258
2149
1961
1776
1709
1762
1914
2085
2181
2147
2000
1840
1745
1782
1927
2119
2263
2250
2106
1913
1775
1757
1845
2000
2141
2169
2070
1886
1757
1745
1906
2177
2505
2768
2928
2992
3026
3152
3385
3742
4095
4095
4095
3699
3200
2761
2451
2320
2308
2327
2269
2102
1859
1661
1591
1685
1871
2047
2139
2093
1934
1754
1649
1669
1808
1986
2095
2059
1916
1734
1603
1600
1728
1927
2105
2141
2029
1823
1648
1602
1693
1874
2040
2107
2034
1881
1715
1623
1654
1795
1984
2113
2098
1955
1773
1647
1664
1810
2021
2176
2206
2093
1904
1733
1679
1747
1904
2086
2175
2143
1989
1808
1707
1750
1907
2100
2218
2199
2086
1917
1797
1807
1926
2112
2259
2288
2167
1987
1835
1791
1873
2043
2221
2303
2256
2120
1972
1888
1917
2063
2230
2338
2311
2181
2015
1901
1906
2026
2211
2380
2423
2320
2141
1989
1963
2082
2259
2439
2515
2464
2298
2119
2031
2083
2239
2416
2533
2515
2366
2171
2031
2062
2193
2368
2506
2528
2415
2231
2070
2018
2102
2263
2399
2431
2323
2145
1942
1843
1892
2039
2210
2288
2227
2045
1831
1696
1708
1830
2009
2163
2197
2099
1893
1710
1645
1728
1903
2058
2117
2047
1875
1712
1651
1723
1891
2081
2172
2129
1969
1791
1677
1707
1851
2039
2197
2224
2084
1879
1712
1681
1791
1978
2143
2194
2130
1968
1799
1731
1805
1962
2127
2193
2154
2005
1839
1729
1724
1844
2035
2199
2221
2096
1894
1737
1711
1815
1984
2142
2197
2112
1937
1777
1708
1775
1921
2102
2203
2167
2005
1812
1690
1712
1859
2047
2188
2202
2086
1910
1758
1722
1841
2059
2215
2256
2162
1962
1792
1722
1778
1923
2102
2195
2157
1996
1810
1695
1713
1857
2032
2162
2159
2029
1845
1691
1671
1792
1986
2148
2192
2112
1939
1765
1677
1725
1883
2067
2147
2105
1949
1778
1673
1699
1849
2028
2166
2166
2046
1871
1716
1680
1770
1937
2097
2166
2087
1908
1735
1655
1706
1868
2052
2150
2107
1959
1783
1680
1707
1863
2045
2173
2151
1999
1797
1648
1633
1750
1935
2097
2156
2083
1917
1747
1685
1773
1955
2132
2192
2116
1936
1734
1618
1648
1808
1985
2113
2127
1999
1826
1691
1681
1791
1964
2116
2149
2039
1856
1685
1616
1690
1872
2047
2128
2086
1925
1747
1634
1659
1810
1999
2125
2122
1994
1827
1696
1680
1794
1957
2112
2141
2053
1908
1788
1739
1797
1936
2092
2174
2130
1998
1847
1764
1799
1939
2107
2193
2160
2014
1831
1698
1708
1810
1971
2122
2157
2037
1850
1680
1610
1662
1821
1973
2026
1936
1767
1593
1497
1535
1700
1885
2005
1999
1861
1670
1530
1531
1663
1837
1975
1985
1888
1711
1553
1503
1584
1760
1939
2026
1968
1783
1598
1498
1535
1690
1866
1955
1910
1744
1524
1377
1381
1555
1809
2039
2176
2206
2209
2255
2403
2675
3051
3441
3716
3722
3487
3190
2931
2765
2657
2559
2448
2224
1925
1615
1398
1360
1470
1664
1839
1891
1792
1601
1441
1387
1474
1663
1834
1887
1819
1663
1486
1395
1436
1602
1777
1889
1865
1741
1583
1457
1446
1562
1761
1936
1963
1821
1617
1449
1403
1496
1689
1887
1958
1888
1713
1535
1472
1534
1702
1872
1970
1948
1792
1615
1491
1500
1642
1834
1984
1997
1903
1722
1586
1574
1670
1851
2014
2075
1967
1787
1609
1534
1607
1775
1946
2041
2020
1883
1710
1600
1619
1773
1967
2102
2091
1935
1743
1601
1584
1714
1923
2123
2192
2130
1969
1793
1712
1776
1958
2161
2255
2215
2073
1905
1789
1797
1936
2131
2262
2274
2151
1968
1835
1833
1963
2165
2333
2369
2271
2090
1909
1835
1899
2055
2231
2339
2313
2158
1955
1845
1885
2032
2213
2323
2307
2170
1958
1786
1726
1803
1956
2106
2133
2014
1815
1626
1535
1613
1771
1934
2014
1951
1782
1596
1472
1472
1606
1802
1952
1957
1813
1603
1450
1418
1530
1727
1883
1911
1810
1633
1472
1417
1498
1670
1846
1921
1859
1702
1526
1424
1447
1615
1826
1963
1949
1794
1598
1425
1405
1524
1723
1899
1953
1860
1678
1494
1437
1535
1739
1927
2000
1941
1791
1616
1510
1553
1704
1872
1984
1984
1872
1689
1535
1523
1635
1809
1947
1982
1895
1729
1585
1526
1611
1791
1951
2032
1970
1797
1619
1527
1583
1739
1923
2042
2021
1894
1744
1650
1635
1708
1839
1953
1975
1877
1706
1553
1501
1595
1772
1936
2006
1941
1783
1630
1535
1593
1744
1898
2012
1997
1859
1664
1527
1535
1661
1842
1982
1984
1871
1700
1535
1505
1599
1781
1939
2000
1935
1762
1584
1488
1552
1712
1908
2026
2000
1853
1664
1535
1552
1693
1895
2053
2076
1949
1761
1594
1559
1665
1860
2023
2096
2030
1870
1700
1619
1677
1840
2027
2144
2112
1961
1771
1668
1707
1838
2001
2152
2171
2070
1895
1743
1698
1789
1971
2170
2237
2167
1998
1819
1725
1759
1922
2129
2236
2206
2061
1873
1744
1767
1931
2134
2287
2295
2182
1998
1829
1759
1845
2015
2176
2256
2195
2038
1873
1786
1853
2015
2198
2301
2262
2129
1975
1881
1902
2032
2223
2374
2398
2300
2107
1939
1899
1985
2157
2310
2367
2301
2138
1967
1895
1954
2109
2268
2368
2327
2177
1989
1868
1875
2002
2192
2310
2295
2153
1958
1798
1759
1859
2042
2223
2305
2231
2055
1863
1783
1851
2020
2200
2288
2242
2090
1904
1775
1783
1931
2130
2274
2285
2143
1936
1781
1735
1813
1981
2138
2166
2081
1904
1755
1744
1879
2160
2477
2738
2898
2960
2979
3054
3220
3499
3807
3979
3821
3435
2966
2533
2225
2095
2104
2139
2099
1968
1776
1590
1509
1569
1728
1902
1981
1922
1786
1634
1558
1602
1744
1895
1994
1980
1854
1671
1515
1474
1580
1773
1943
1990
1915
1754
1600
1531
1595
1760
1950
2061
2011
1846
1661
1563
1582
1711
1892
2018
2017
1883
1693
1535
1522
1646
1839
2022
2079
1959
1783
1646
1602
1683
1861
2039
2125
2064
1899
1717
1616
1648
1790
1981
2099
2096
1973
1795
1653
1649
1775
1985
2137
2175
2081
1893
1727
1668
1734
1891
2079
2183
2157
2000
1841
1753
1807
1969
2163
2285
2260
2123
1931
1799
1794
1904
2080
2230
2284
2224
2094
1955
1915
1986
2155
2317
2387
2342
2192
2027
1941
1989
2141
2329
2453
2444
2317
2135
1994
1975
2089
2256
2389
2402
2291
2112
1959
1911
1986
2126
2263
2320
2243
2065
1863
1759
1789
1917
2074
2166
2128
1974
1776
1623
1600
1694
1857
1981
1993
1901
1758
1620
1572
1635
1793
1950
2004
1934
1771
1600
1506
1535
1703
1899
2017
1998
1859
1685
1554
1535
1652
1808
1931
1953
1856
1685
1522
1488
1581
1745
1904
1969
1908
1750
1582
1490
1533
1683
1845
1948
1920
1776
1589
1466
1492
1647
1830
1958
1975
1845
1664
1509
1502
1632
1811
1984
2047
1967
1786
1605
1526
1586
1742
1917
2018
1998
1872
1687
1568
1581
1714
1889
2014
2018
1902
1722
1584
1535
1642
1820
1984
2047
1984
1823
1646
1535
1600
1771
1968
2047
1985
1823
1661
1563
1584
1705
1878
2025
2023
1904
1731
1588
1535
1638
1810
1980
2032
1959
1795
1617
1531
1581
1727
1891
1985
1968
1825
1646
1514
1521
1667
1838
1953
1961
1841
1658
1522
1527
1650
1833
1973
2002
1891
1707
1527
1456
1530
1719
1917
2027
1997
1837
1631
1520
1563
1712
1910
2043
2064
1926
1741
1618
1617
1728
1895
2038
2080
1996
1855
1717
1686
1789
1978
2162
2256
2203
2019
1817
1703
1723
1879
2109
2265
2256
2113
1893
1729
1693
1793
1955
2101
2122
2016
1859
1715
1663
1743
1907
2097
2182
2123
1952
1754
1639
1679
1842
2043
2178
2166
2016
1815
1663
1648
1771
1950
2112
2167
2090
1905
1735
1678
1739
1887
2059
2135
2082
1904
1703
1584
1603
1744
1936
2096
2144
2077
1991
1985
2138
2448
2851
3263
3551
3629
3504
3374
3260
3217
3235
3186
2999
2678
2275
1889
1647
1584
1680
1833
1942
1931
1799
1611
1478
1473
1599
1787
1954
1997
1889
1698
1531
1481
1573
1744
1910
1968
1915
1765
1590
1488
1535
1722
1928
2054
2031
1883
1691
1553
1553
1679
1875
2039
2091
1987
1796
1629
1578
1658
1840
2025
2102
2047
1888
1709
1611
1627
1767
1940
2063
2034
1897
1712
1593
1587
1725
1913
2065
2087
1983
1805
1642
1591
1673
1857
2064
2159
2093
1918
1726
1629
1673
1814
1993
2126
2131
2010
1840
1709
1685
1815
2069
2259
2283
2162
1951
1773
1707
1779
1959
2150
2240
2221
2067
1932
1885
1937
2083
2252
2347
2327
2192
2009
1893
1905
2035
2236
2394
2430
2330
2161
2000
1947
2028
2208
2375
2448
2389
2224
2063
1968
2021
2183
2335
2403
2336
2145
1931
1791
1777
1897
2078
2207
2197
2055
1831
1648
1610
1703
1855
1987
2023
1936
1769
1590
1493
1535
1701
1878
1970
1948
1803
1626
1497
1499
1635
1823
1951
1947
1847
1684
1518
1488
1603
1793
1963
2028
1940
1751
1556
1475
1535
1694
1866
1968
1927
1781
1597
1470
1472
1616
1808
1955
1974
1855
1664
1519
1488
1586
1759
1936
1993
1918
1751
1584
1493
1535
1708
1886
1985
1951
1803
1627
1507
1535
1679
1871
2002
2005
1901
1719
1567
1535
1648
1817
1973
2032
1962
1783
1595
1489
1535
1726
1920
2042
2023
1872
1674
1525
1529
1664
1854
1986
1999
1886
1725
1589
1584
1694
1893
2054
2097
2002
1824
1650
1581
1643
1808
1971
2067
2034
1895
1722
1607
1605
1744
1918
2027
2027
1921
1758
1632
1616
1722
1901
2032
2055
1962
1786
1624
1560
1634
1840
2023
2106
2052
1875
1682
1578
1599
1740
1932
2080
2096
1974
1791
1626
1595
1695
1879
2044
2096
2001
1837
1662
1599
1675
1853
2032
2128
2077
1906
1718
1600
1626
1775
1973
2129
2147
2003
1809
1677
1648
1755
1936
2096
2131
2027
1840
1682
1645
1719
1881
2041
2137
2101
1958
1790
1685
1729
1890
2091
2210
2211
2088
1903
1774
1774
1917
2116
2257
2282
2172
1983
1827
1775
1828
1965
2101
2164
2115
1975
1807
1700
1722
1860
2031
2142
2127
1975
1785
1659
1661
1792
1989
2155
2181
2094
1910
1760
1723
1791
1949
2112
2193
2131
1981
1817
1722
1747
1891
2071
2185
2179
2047
1871
1743
1744
1851
1995
2113
2115
2000
1835
1730
1765
1943
2227
2543
2800
2956
3009
3023
3118
3321
3649
3972
4093
3855
3427
2970
2557
2298
2199
2209
2215
2151
2000
1795
1623
1574
1663
1849
2031
2103
2027
1841
1653
1567
1616
1770
1939
2058
2030
1909
1747
1614
1613
1722
1921
2070
2096
1985
1812
1648
1602
1699
1875
2047
2115
2045
1883
1712
1631
1671
1828
2029
2176
2160
1989
1793
1648
1639
1775
1970
2129
2144
2000
1818
1680
1658
1766
1956
2127
2192
2127
1936
1757
1670
1727
1867
2038
2151
2128
1968
1773
1663
1693
1856
2064
2221
2246
2135
1955
1792
1746
1837
2016
2191
2247
2179
2015
1833
1732
1778
1957
2157
2257
2243
2111
1938
1834
1854
2000
2207
2352
2370
2259
2087
1936
1929
2053
2237
2399
2452
2377
2205
2027
1949
2019
2198
2387
2494
2462
2311
2134
2022
2039
2192
2389
2523
2519
2386
2193
2016
1947
2019
2195
2343
2389
2304
2114
1907
1807
1840
1984
2138
2194
2126
1954
1791
1708
1728
1853
2020
2143
2139
2002
1806
1648
1605
1712
1918
2109
2151
2058
1869
1680
1602
1675
1843
2033
2135
