2045
2074
1999
1855
1713
1639
1661
1755
1876
1947
1931
1839
1699
1598
1566
1626
1743
1846
1859
1775
1618
1492
1428
1456
1559
1671
1728
1683
1572
1429
1357
1362
1472
1614
1714
1727
1641
1502
1411
1399
1482
1617
1740
1783
1718
1584
1462
1424
1478
1598
1712
1782
1755
1642
1501
1415
1430
1532
1671
1774
1783
1702
1553
1455
1442
1535
1703
1822
1857
1795
1651
1519
1460
1516
1642
1762
1827
1791
1676
1535
1471
1489
1597
1740
1840
1847
1744
1586
1456
1453
1535
1697
1819
1847
1779
1633
1493
1449
1511
1680
1840
1911
1882
1764
1613
1520
1535
1663
1786
1881
1891
1805
1665
1535
1518
1597
1731
1843
1903
1845
1719
1593
1525
1569
1693
1839
1906
1883
1757
1606
1517
1535
1648
1789
1877
1882
1795
1673
1559
1535
1625
1753
1872
1923
1859
1717
1587
1523
1584
1697
1825
1900
1867
1771
1625
1535
1535
1655
1825
1957
1972
1872
1706
1569
1520
1595
1744
1863
1920
1873
1751
1632
1567
1591
1701
1840
1923
1907
1785
1647
1531
1515
1600
1746
1841
1856
1776
1631
1509
1472
1531
1665
1790
1855
1799
1682
1535
1451
1461
1562
1699
1808
1821
1728
1610
1498
1472
1529
1661
1776
1808
1742
1591
1456
1392
1426
1535
1667
1719
1686
1583
1469
1433
1506
1659
1847
1993
2065
2021
1925
1871
1906
2038
2233
2382
2435
2379
2209
2021
1909
1883
1945
2032
2091
2073
1959
1833
1713
1713
1795
1919
2031
2077
2029
1925
1818
1764
1811
1929
2047
2123
2110
2000
1890
1804
1796
1885
1991
2091
2123
2058
1931
1826
1811
1883
1995
2128
2171
2128
2013
1894
1833
1854
1945
2064
2133
2137
2047
1926
1839
1830
1931
2066
2169
2195
2119
1989
1872
1823
1857
1978
2107
2181
2147
2023
1904
1839
1861
1967
2105
2192
2205
2114
1983
1895
1879
1955
2081
2190
2240
2190
2081
1967
1932
1989
2140
2263
2332
2306
2198
2075
1998
2025
2139
2266
2348
2365
2283
2173
2087
2085
2175
2319
2427
2449
2400
2287
2175
2122
2178
2279
2394
2441
2395
2282
2159
2085
2095
2173
2286
2357
2353
2250
2111
1991
1966
2022
2111
2187
2192
2120
2000
1876
1795
1821
1920
2032
2105
2073
1961
1824
1748
1753
1843
1986
2086
2091
2003
1913
1836
1808
1869
1975
2070
2095
2037
1922
1810
1760
1806
1917
2037
2115
2101
1991
1883
1802
1804
1902
2032
2119
2100
2000
1872
1795
1782
1865
1979
2095
2128
2083
1958
1850
1795
1828
1939
2063
2128
2114
2010
1888
1808
1817
1914
2031
2117
2117
2032
1917
1807
1782
1863
1984
2085
2125
2076
1968
1853
1789
1833
1945
2074
2133
2111
1984
1851
1769
1773
1879
1999
2107
2128
2047
1921
1822
1792
1874
1987
2096
2129
2075
1953
1841
1787
1841
1951
2068
2133
2101
1973
1853
1771
1785
1883
2011
2096
2107
2022
1893
1791
1775
1847
1970
2095
2128
2057
1925
1814
1769
1813
1920
2038
2117
2096
1983
1872
1803
1804
1874
1987
2087
2115
2045
1929
1834
1804
1856
1961
2063
2114
2064
1934
1823
1776
1820
1927
2046
2119
2115
2017
1889
1802
1783
1866
1978
2067
2091
2007
1904
1806
1779
1840
1967
2096
2149
2114
2015
1893
1836
1854
1951
2076
2151
2133
2016
1872
1785
1791
1874
1993
2079
2085
1991
1867
1762
1744
1812
1935
2053
2114
2065
1950
1814
1751
1782
1899
2026
2095
2065
1951
1817
1739
1759
1844
1967
2057
2073
2000
1887
1786
1747
1795
1894
1974
2015
1974
1886
1818
1826
1918
2077
2235
2335
2320
2235
2135
2107
2189
2369
2559
2704
2715
2595
2394
2192
2069
2037
2081
2117
2128
2039
1910
1781
1724
1758
1869
1991
2062
2053
1935
1817
1744
1756
1847
1967
2053
2054
1968
1847
1751
1733
1793
1905
2013
2064
2019
1917
1808
1763
1797
1916
2041
2125
2110
1982
1835
1738
1738
1853
1991
2082
2083
2006
1882
1776
1739
1808
1933
2045
2095
2043
1926
1803
1728
1776
1891
2011
2090
2086
1987
1858
1777
1777
1881
2013
2116
2145
2082
1965
1854
1815
1876
2002
2137
2191
2146
2029
1908
1854
1895
2000
2128
2230
2233
2130
2000
1915
1907
1985
2128
2256
2291
2226
2106
2001
1994
2078
2199
2319
2373
2326
2221
2097
2039
2071
2191
2321
2397
2370
2259
2128
2043
2045
2112
2199
2266
2267
2177
2039
1927
1878
1918
2010
2114
2151
2106
1978
1845
1774
1793
1887
2003
2073
2036
1915
1782
1701
1701
1790
1931
2039
2080
1997
1863
1746
1717
1768
1893
1999
2042
1997
1870
1740
1673
1721
1840
1968
2035
2011
1913
1791
1707
1708
1807
1929
2025
2042
1967
1845
1738
1706
1751
1873
2000
2067
2037
1942
1813
1744
1771
1878
1988
2055
2045
1936
1821
1745
1749
1843
1960
2057
2079
2001
1882
1775
1746
1802
1906
2019
2082
2037
1929
1809
1743
1754
1849
1967
2047
2055
1957
1840
1746
1747
1824
1933
2021
2066
2000
1883
1775
1725
1779
1887
1998
2066
2032
1921
1808
1766
1813
1920
2020
2081
2064
1963
1837
1733
1722
1817
1927
2014
2057
1997
1888
1792
1748
1792
1872
1979
2062
2047
1945
1829
1759
1769
1855
1967
2054
2055
1968
1847
1751
1737
1808
1941
2046
2081
2002
1863
1722
1675
1735
1874
2003
2062
2007
1893
1773
1690
1712
1825
1961
2058
2068
1969
1840
1744
1741
1822
1961
2080
2101
2023
1902
1792
1777
1843
1939
2035
2067
2019
1909
1799
1740
1758
1867
2002
2110
2101
1984
1834
1735
1717
1801
1904
1982
1966
1869
1733
1638
1643
1713
1851
1972
2054
2031
1953
1873
1872
1943
2079
2199
2281
2251
2140
2033
1994
2020
2135
2275
2371
2384
2294
2177
2098
2118
2240
2387
2516
2559
2503
2375
2279
2278
2366
2494
2624
2707
2704
2607
2479
2395
2410
2518
2653
2743
2741
2642
2511
2425
2416
2503
2639
2725
2727
2642
2510
2414
2416
2541
2731
2883
2949
2923
2822
2727
2688
2763
2929
3119
3254
3276
3155
2963
2798
2717
2726
2784
2823
2782
2643
2435
2270
2194
2237
2351
2447
2481
2438
2346
2214
2138
2161
2257
2379
2447
2420
2301
2167
2055
2032
2106
2225
2343
2357
2256
2094
1968
1939
2015
2159
2273
2306
2240
2110
2002
1957
1985
2090
2202
2270
2239
2127
1993
1904
1904
1987
2112
2206
2205
2119
1988
1909
1920
2003
2124
2205
2235
2177
2038
1906
1845
1883
2017
2165
2227
2190
2063
1906
1833
1851
1950
2098
2206
2225
2146
1997
1885
1846
1910
2067
2226
2293
2238
2107
1984
1917
1951
2083
2213
2288
2288
2218
2096
1998
1991
2097
2239
2339
2365
2289
2166
2073
2073
2133
2251
2347
2386
2358
2229
2080
1991
2032
2162
2286
2346
2320
2203
2069
1961
1937
2016
2142
2255
2240
2125
1955
1808
1782
1831
1931
2045
2099
2046
1906
1774
1718
1727
1809
1923
1983
1951
1829
1711
1631
1634
1739
1866
1998
2022
1936
1793
1655
1606
1652
1771
1881
1951
1936
1823
1705
1648
1663
1771
1897
1970
1957
1843
1708
1618
1632
1730
1858
1965
1985
1919
1779
1653
1606
1667
1795
1935
1993
1937
1787
1651
1605
1663
1775
1903
1974
1951
1844
1717
1638
1635
1710
1817
1905
1920
1846
1728
1638
1616
1691
1843
1968
2013
1978
1845
1696
1617
1648
1744
1882
1967
1975
1891
1749
1649
1643
1725
1863
1968
1975
1901
1774
1659
1638
1702
1844
1947
1997
1931
1808
1670
1621
1667
1808
1941
2000
1955
1842
1726
1647
1641
1719
1851
1957
1968
1902
1771
1648
1615
1677
1813
1943
2001
1953
1846
1726
1662
1701
1798
1907
1984
2000
1905
1759
1659
1651
1745
1874
1975
1978
1891
1758
1655
1616
1690
1833
1959
2019
1958
1841
1711
1647
1663
1762
1889
1987
2010
1909
1745
1629
1627
1715
1855
1969
2030
1971
1833
1716
1691
1763
1865
1967
2026
1994
1879
1766
1694
1744
1872
2001
2102
2091
1979
1856
1772
1757
1843
1962
2055
2067
2021
1906
1783
1745
1779
1877
1979
2032
2000
1870
1730
1680
1709
1826
1959
2047
2064
1955
1804
1707
1691
1776
1921
2026
2055
1968
1840
1732
1700
1767
1877
1964
1999
1946
1792
1662
1616
1697
1873
2064
2194
2249
2179
2063
1967
2019
2154
2320
2497
2589
2559
2457
2290
2175
2138
2192
2242
2240
2147
1972
1801
1712
1729
1835
1964
2014
1986
1884
1761
1675
1671
1763
1899
2000
2032
1968
1834
1728
1690
1744
1867
1974
2037
2010
1883
1757
1701
1762
1878
2025
2096
2071
1952
1811
1702
1683
1791
1937
2030
2047
1987
1847
1743
1703
1765
1882
2017
2076
2023
1894
1773
1742
1800
1923
2039
2103
2077
1983
1841
1739
1744
1840
1979
2107
2146
2065
1921
1821
1779
1840
1959
2082
2157
2127
2001
1879
1826
1861
1971
2116
2205
2210
2128
2000
1916
1910
1985
2131
2241
2278
2216
2091
1988
1971
2031
2174
2307
2370
2325
2221
2107
2043
2081
2182
2327
2416
2398
2283
2129
2030
2021
2102
2228
2327
2351
2281
2138
1986
1918
1957
2106
2235
2247
2170
2015
1854
1749
1745
1855
1997
2077
2045
1931
1790
1701
1694
1776
1900
1984
1998
1920
1787
1661
1628
1686
1824
1943
2011
1983
1873
1731
1637
1631
1728
1854
1941
1947
1856
1727
1643
1637
1734
1872
1990
2027
1954
1808
1695
1667
1737
1870
1998
2059
2014
1893
1762
1662
1671
1792
1919
2007
2007
1904
1767
1678
1680
1761
1905
2027
2073
2000
1853
1712
1665
1730
1862
1997
2064
2018
1891
1759
1712
1747
1872
1986
2063
2043
1947
1826
1725
1711
1791
1934
2057
2101
2031
1889
1757
1697
1749
1881
2010
2079
2035
1925
1807
1743
1761
1849
1967
2046
2054
1980
1858
1757
1762
1867
1994
2112
2128
2041
1892
1746
1689
1760
1905
2054
2127
2089
1977
1843
1767
1776
1878
2016
2122
2129
2029
1872
1751
1749
1840
1971
2082
2123
2074
1956
1849
1798
1842
1961
2085
2142
2100
1984
1875
1815
1840
1940
2080
2170
2167
2062
1935
1841
1836
1915
2062
2172
2183
2096
1955
1834
1770
1817
1958
2112
2188
2138
2015
1872
1777
1785
1901
2031
2127
2128
2038
1897
1780
1759
1841
1965
2094
2143
2083
1937
1808
1773
1839
1947
2045
2099
2064
1936
1777
1705
1743
1899
2086
2230
2313
2303
2201
2106
2073
2115
2244
2368
2448
2442
2367
2256
2183
2160
2197
2246
2235
2142
1968
1793
1702
1715
1835
1981
2080
2087
1985
1863
1763
1754
1851
1982
2083
2107
2045
1914
1791
1749
1803
1924
2032
2099
2093
1981
1857
1801
1823
1902
2011
2128
2154
2064
1909
1786
1753
1827
1969
2096
2135
2090
1968
1872
1854
1887
1969
2077
2130
2094
1985
1851
1778
1810
1928
2076
2173
2175
2087
1946
1850
1823
1901
2042
2139
2160
2112
2011
1899
1854
1905
2036
2165
2243
2240
2147
2007
1906
1910
2014
2160
2275
2295
2218
2097
2000
1962
2020
2171
2294
2339
2298
2192
2103
2069
2114
2233
2371
2447
2435
2325
2200
2118
2128
2236
2381
2480
2500
2399
2254
2150
2117
2187
2307
2410
2440
2363
2207
2055
1968
1983
2091
2198
2253
2197
2067
1920
1835
1841
1942
2060
2126
2127
2019
1856
1735
1697
1770
1908
2032
2079
2032
1901
1757
1671
1703
1831
1950
2011
1997
1883
1744
1651
1659
1744
1884
1999
2021
1936
1803
1689
1662
1741
1873
2003
2047
1995
1870
1755
1702
1729
1839
1970
2047
2058
1964
1821
1713
1701
1806
1934
2042
2066
1981
1840
1737
1722
1805
1933
2043
2097
2042
1902
1785
1739
1777
1911
2047
2128
2096
1969
1840
1761
1790
1905
2018
2112
2113
2011
1877
1781
1755
1827
1941
2036
2074
2027
1920
1803
1749
1791
1917
2037
2113
2090
1982
1851
1757
1765
1859
2019
2130
2133
2041
1904
1797
1746
1799
1934
2064
2117
2073
1943
1830
1786
1834
1936
2075
2145
2119
2007
1861
1783
1807
1920
2066
2158
2161
2074
1933
1831
1808
1884
2015
2119
2160
2112
1957
1810
1744
1787
1917
2043
2110
2076
1947
1823
1744
1755
1858
2006
2107
2112
2028
1886
1755
1717
1787
1931
2063
2102
2047
1907
1794
1756
1798
1920
2042
2124
2089
1963
1813
1717
1737
1840
2002
2133
2175
2138
2033
1940
1936
1995
2117
2224
2278
2276
2213
2141
2112
2147
2197
2255
2256
2176
2021
1869
1743
1717
1807
1943
2067
2095
1992
1850
1734
1695
1765
1925
2067
2123
2087
1961
1838
1770
1802
1904
2020
2114
2109
1991
1855
1764
1779
1873
2000
2118
2177
2137
1984
1837
1765
1807
1943
2083
2147
2116
1995
1869
1805
1823
1918
2039
2123
2141
2047
1926
1840
1846
1945
2083
2182
2195
2112
1968
1871
1853
1913
2044
2190
2241
2191
2045
1895
1825
1863
1999
2122
2206
2207
2117
1989
1885
1877
1983
2134
2244
2272
2199
2074
1967
1936
2005
2145
2274
2341
2315
2199
2071
1998
2027
2161
2311
2405
2409
2303
2158
2047
2031
2117
2274
2398
2416
2347
2238
2115
2087
2160
2286
2384
2415
2345
2191
2039
1959
1968
2065
2171
2231
2208
2098
1950
1844
1837
1915
2034
2112
2113
2023
1867
1741
1707
1774
1897
2000
2032
1985
1853
1709
1646
1698
1858
1983
2019
1968
1850
1711
1613
1618
1726
1872
1971
1985
1904
1776
1661
1608
1671
1813
1941
1989
1951
1814
1679
1599
1614
1711
1843
1941
1941
1857
1739
1631
1603
1683
1821
1930
1957
1885
1751
1645
1612
1677
1816
1937
1996
1952
1815
1680
1601
1614
1713
1841
1916
1900
1801
1675
1574
1563
1648
1786
1909
1954
1890
1741
1602
1535
1584
1719
1851
1920
1885
1759
1628
1535
1568
1679
1821
1923
1926
1821
1663
1535
1517
1598
1741
1867
1903
1839
1694
1558
1487
1520
1651
1776
1843
1843
1751
1618
1515
1523
1634
1771
1856
1890
1797
1650
1525
1485
1555
1708
1835
1863
1803
1655
1515
1453
1491
1639
1797
1885
1871
1728
1559
1439
1451
1553
1697
1813
1833
1746
1617
1514
1488
1557
1693
1811
1877
1823
1677
1503
1408
1433
1573
1745
1872
1859
1724
1533
1374
1360
1474
1666
1872
1975
1936
1817
1712
1655
1681
1823
1987
2106
2112
2014
1887
1793
1777
1877
2007
2108
2075
1887
1637
1435
1375
1465
1643
1808
1904
1856
1670
1487
1441
1520
1685
1865
1968
1965
1835
1650
1521
1535
1685
1871
2026
2064
1952
1758
1587
1533
1648
1835
2026
2113
2047
1866
1659
1535
1581
1744
1935
2066
2064
1927
1759
1629
1619
1758
1959
2123
2178
2060
1850
1677
1609
1707
1895
2081
2175
2123
1957
1763
1677
1725
1895
2102
2224
2224
2096
1906
1768
1767
1915
2106
2255
2293
2195
2018
1846
1802
1883
2071
2281
2391
2353
2202
2020
1904
1920
2099
2321
2491
2499
2350
2126
1968
1961
2112
2325
2512
2579
2490
2309
2126
2062
2150
2349
2559
2674
2608
2415
2196
2058
2042
2198
2400
2551
2559
2406
2192
2000
1939
2033
2227
2407
2471
2361
2134
1923
1822
1875
2059
2259
2371
2327
2129
1909
1787
1828
2019
2230
2358
2352
2207
1999
1834
1776
1886
2099
2277
2335
2237
2029
1834
1751
1847
2045
2247
2356
2313
2155
1968
1863
1858
1994
2191
2323
2331
2203
1994
1838
1829
1975
2187
2366
2427
2315
2122
1925
1863
1959
2166
2374
2465
2418
2223
2013
1915
1960
2102
2275
2390
2386
2245
2054
1909
1890
2027
2229
2416
2478
2399
2199
2033
1970
2036
2205
2383
2480
2439
2289
2096
1943
1949
2100
2309
2448
2477
2371
2191
2025
1988
2101
2271
2416
2462
2370
2183
1990
1927
2019
2211
2404
2493
2435
2261
2082
1982
2000
2160
2334
2464
2462
2320
2111
1953
1925
2058
2256
2453
2527
2436
2239
2036
1951
2000
2149
2337
2433
2384
2198
1991
1872
1904
2059
2246
2379
2379
2247
2058
1895
1885
2021
2221
2367
2399
2276
2042
1835
1747
1807
2001
2224
2333
2269
2096
1906
1801
1811
1968
2158
2271
2257
2098
1886
1739
1693
1826
2064
2311
2426
2368
2205
2021
1951
2031
2224
2417
2559
2599
2463
2269
2112
2063
2154
2298
2384
2322
2118
1869
1711
1674
1778
1973
2163
2237
2130
1915
1707
1616
1683
1865
2084
2224
2197
2003
1781
1646
1650
1788
1986
2136
2160
2027
1808
1605
1535
1669
1909
2129
2229
2160
1955
1729
1601
1639
1811
2033
2162
2173
2025
1793
1634
1587
1717
1938
2109
2154
2014
1808
1616
1535
1666
1887
2119
2231
2160
1973
1763
1635
1671
1838
2046
2203
2207
2042
1802
1648
1643
1792
2015
2203
2241
2103
1872
1677
1597
1685
1905
2145
2277
2226
2026
1789
1653
1706
1911
2173
2347
2341
2158
1906
1727
1701
1882
2143
2359
2434
2319
2071
1835
1734
1833
2062
2305
2458
2432
2246
1986
1830
1808
1953
2186
2378
2435
2329
2096
1873
1786
1867
2095
2307
2415
2323
2101
1844
1691
1727
1904
2158
2335
2340
2161
1903
1702
1680
1870
2141
2332
2363
2207
1957
1729
1637
1737
1968
2222
2352
2289
2079
1815
1650
1685
1875
2129
2270
2240
2029
1776
1616
1630
1808
2075
2253
2245
2064
1798
1600
1557
1713
2001
2256
2325
2193
1929
1677
1591
1690
1919
2179
2316
2252
2034
1774
1614
1669
1890
2143
2319
2326
2160
1888
1685
1648
1791
2027
2239
2305
2209
2019
1817
1742
1843
2041
2256
2374
2302
2108
1881
1751
1776
1937
2165
2326
2325
2163
1932
1771
1760
1918
2139
2320
2365
2227
2007
1831
1793
1919
2125
2305
2392
2291
2093
1846
1744
1786
1965
2193
2353
2350
2192
1981
1833
1837
1995
2227
2390
2426
2286
2054
1840
1808
1907
2107
2295
2371
2288
2097
1898
1797
1878
2094
2273
2370
2310
2126
1908
1780
1783
1951
2162
2325
2337
2207
1986
1818
1771
1876
2071
2256
2319
2237
2047
1875
1805
1917
2098
2247
2335
2256
2064
1839
1717
1741
1894
2070
2193
2198
2047
1846
1685
1659
1778
1975
2155
2215
2118
1925
1718
1621
1680
1856
2041
2154
2128
1967
1763
1629
1651
1808
1991
2112
2115
1962
1758
1599
1520
1599
1794
2015
2141
2110
1971
1840
1787
1865
2054
2259
2366
2347
2219
2065
1990
2037
2192
2343
2423
2397
2210
1936
1701
1613
1680
1830
1991
2027
1933
1744
1563
1458
1499
1662
1855
1970
1943
1783
1584
1445
1471
1638
1823
1974
2002
1872
1665
1472
1414
1520
1717
1899
1986
1931
1751
1562
1450
1498
1665
1854
1969
1949
1770
1535
1387
1382
1520
1744
1920
1962
1844
1649
1458
1393
1471
1657
1859
1974
1891
1651
1391
1244
1295
1498
1745
1919
1921
1751
1509
1328
1308
1453
1684
1889
1961
1851
1626
1411
1312
1419
1675
1936
2074
2022
1810
1558
1394
1424
1617
1883
2102
2129
1954
1687
1507
1472
1631
1892
2134
2231
2113
1858
1603
1486
1575
1833
2113
2291
2247
2006
1696
1483
1479
1690
1993
2247
2290
2115
1811
1535
1446
1612
1914
2199
2321
2199
1910
1591
1407
1458
1707
1991
2175
2148
1939
1642
1423
1375
1584
1885
2157
2239
2057
1731
1428
1315
1456
1770
2074
2239
2163
1879
1562
1391
1456
1724
2046
2256
2230
1979
1648
1419
1378
1582
1872
2132
2192
2038
1771
1507
1430
1583
1877
2170
2298
2214
1966
1703
1572
1653
1903
2179
2357
2338
2144
1893
1737
1765
1969
2225
2418
2439
2283
2036
1855
1817
1969
2209
2419
2503
2423
2233
2035
1937
2039
2270
2502
2630
2583
2398
2186
2067
2119
2304
2512
2662
2663
2512
2316
2167
2165
2322
2523
2689
2741
2631
2421
2239
2187
2304
2496
2674
2740
2673
2491
2303
2189
2224
2384
2591
2736
2725
2583
2389
2261
2267
2405
2590
2723
2737
2624
2439
2291
2253
2342
2506
2663
2726
2643
2487
2346
2269
2325
2470
2653
2751
2704
2529
2354
2251
2273
2394
2539
2624
2592
2449
2267
2148
2132
2240
2410
2547
2582
2494
2326
2158
2083
2137
2304
2457
2534
2478
2317
2147
2039
2081
2212
2359
2485
2473
2339
2153
2022
1996
2094
2231
2351
2405
2311
2143
1984
1939
1994
2115
2241
2304
2272
2135
1999
1905
1938
2081
2224
2288
2258
2131
1981
1874
1870
1970
2112
2226
2238
2150
1998
1889
1881
1938
2062
2170
2212
2160
2002
1863
1797
1828
1957
2098
2167
2143
2015
1861
1735
1728
1831
1981
2081
2093
1993
1843
1723
1702
1776
1905
2018
2077
2015
1869
1728
1667
1695
1799
1938
2021
2013
1904
1767
1661
1648
1734
1874
1995
2006
1914
1763
1620
1568
1639
1793
1961
2064
2094
2015
1893
1815
1847
1965
2126
2270
2341
2295
2192
2091
2043
2096
2185
2235
2184
2027
1827
1631
1558
1602
1741
1879
1951
1902
1759
1629
1535
1585
1710
1862
1968
1950
1801
1617
1486
1462
1557
1712
1837
1878
1817
1686
1583
1563
1647
1775
1891
1923
1858
1711
1558
1472
1503
1638
1793
1888
1877
1771
1626
1519
1506
1614
1763
1874
1900
1812
1671
1535
1505
1602
1744
1872
1937
1889
1741
1589
1498
1524
1664
1827
1933
1924
1794
1641
1532
1525
1623
1776
1919
1957
1892
1754
1629
1581
1625
1781
1922
1980
1931
1808
1670
1612
1658
1791
1947
2061
2068
1968
1815
1717
1717
1808
1959
2084
2119
2045
1885
1727
1658
1697
1858
2022
2124
2096
1968
1791
1675
1666
1767
1919
2017
2026
1907
1758
1630
1595
1665
1806
1939
1965
1847
1658
1482
1419
1447
1559
1691
1769
1727
1590
1425
1327
1326
1446
1634
1761
1776
1647
1456
1299
1258
1342
1489
1647
1709
1643
1478
1314
1223
1280
1446
1632
1775
1779
1635
1431
1286
1252
1360
1535
1712
1763
1683
1532
1357
1269
1328
1488
1655
1762
1747
1602
1445
1334
1336
1456
1635
1807
1858
1728
1506
1329
1311
1433
1625
1783
1858
1792
1642
1474
1402
1475
1667
1859
1954
1923
1772
1583
1445
1446
1584
1776
1932
1968
1851
1679
1535
1491
1597
1771
1930
1986
1909
1746
1581
1494
1563
1744
1948
2077
2047
1878
1681
1563
1569
1701
1887
2037
2066
1936
1739
1560
1489
1595
1825
2057
2157
2084
1893
1680
1555
1579
1733
1957
2126
2151
1988
1744
1559
1521
1655
1869
2064
2129
2026
1835
1627
1524
1598
1803
2005
2115
2047
1855
1617
1472
1495
1693
1936
2115
2143
1989
1738
1511
1455
1584
1805
2026
2145
2077
1856
1615
1491
1573
1799
2074
2250
2198
1994
1733
1535
1525
1710
1985
2237
2301
2143
1881
1637
1535
1680
1938
2198
2327
2256
2027
1775
1632
1682
1904
2178
2373
2377
2178
1886
1685
1680
1872
2162
2407
2481
2321
2032
1763
1654
1787
2060
2331
2479
2427
2194
1901
1712
1745
1984
2317
2558
2596
2391
2087
1839
1777
1917
2189
2445
2535
2403
2123
1847
1728
1840
2117
2400
2559
2518
2263
1941
1749
1763
1968
2254
2464
2480
2286
1981
1751
1708
1883
2183
2442
2529
2378
2110
1840
1731
1852
2128
2419
2559
2483
2231
1934
1755
1797
2026
2289
2477
2485
2303
2026
1811
1807
2015
2338
2639
2767
2651
2382
2151
2089
2265
2609
2934
3119
2999
2668
2271
1986
1920
2077
2334
2533
2541
2343
2032
1777
1709
1871
2177
2478
2608
2471
2167
1846
1691
1766
2032
2349
2551
2512
2259
1917
1679
1677
1911
2256
2511
2542
2342
2025
1760
1664
1809
2118
2416
2558
2433
2119
1790
1616
1703
1999
2353
2579
2549
2279
1907
1649
1636
1870
2247
2667
2943
2847
2350
1701
1239
1237
1711
2431
3047
3203
2777
2072
1418
1206
1522
2195
2883
3199
2942
2269
1535
1161
1302
1918
2688
3221
3167
2595
1840
1270
1221
1716
2480
3154
3311
2859
2112
1439
1211
1535
2258
2992
3381
3136
2438
1707
1299
1450
2096
2875
3409
3342
2736
1969
1424
1389
1859
2608
3258
3412
2957
2205
1533
1302
1617
2290
2985
3342
3056
2343
1584
1140
1116
1390
1707
1839
1702
1424
1186
1122
1314
1685
2055
2239
2133
1808
1455
1266
1333
1639
2019
2287
2262
2011
1648
1383
1360
1597
1968
2273
2343
2141
1785
1483
1388
1525
1859
2192
2352
2239
1925
1586
1390
1456
1735
2091
2326
2311
2066
1710
1447
1424
1653
2009
2329
2414
2224
1871
1535
1423
1561
1872
2193
2363
2240
1951
1631
1461
1535
1825
2160
2375
2350
2107
1761
1495
1472
1699
2041
2327
2400
2210
1847
1535
1441
1590
1906
2223
2383
2283
1967
1627
1443
1521
1824
2174
2397
2374
2126
1777
1521
1488
1697
2032
2317
2389
2224
1891
1604
1483
1612
1923
2249
2419
2317
2013
1665
1479
1535
1803
2127
2333
2312
2095
1766
1517
1488
1685
2020
2309
2391
2224
1893
1584
1457
1598
1892
2192
2346
2266
1986
1680
1473
1523
1789
2119
2333
2305
2080
1756
1521
1522
1744
2078
2343
2407
2231
1904
1616
1498
1630
1914
2240
2416
2322
2021
1686
1490
1535
1808
2128
2320
2304
2066
1733
1498
1490
1722
2064
2313
2391
2241
1931
1625
1502
1633
1919
2223
2366
2273
1991
1664
1489
1567
1840
2165
2374
2352
2113
1792
1555
1535
1759
2081
2347
2405
2242
1937
1653
1572
1709
1984
2279
2431
2330
2061
1748
1570
1616
1856
2176
2394
2387
2170
1851
1622
1595
1769
2043
2286
2351
2199
1895
1632
1535
1680
1959
2240
2368
2269
1986
1697
1531
1598
1841
2128
2315
2288
2069
1766
1558
1535
1734
2058
2311
2364
2195
1898
1616
1488
1606
1874
2175
2309
2219
1965
1691
1553
1647
1926
2283
2542
2559
2358
2057
1842
1867
2148
2542
2871
2992
2815
2446
2083
1875
1919
2130
2356
2434
2287
1981
1674
1494
1535
1787
2096
2302
2294
2091
1781
1573
1559
1741
2030
2261
2322
2149
1851
1581
1472
1605
1879
2176
2320
2237
1973
1681
1513
1566
1803
2112
2331
2347
2128
1786
1535
1507
1681
1973
2271
2378
2218
1904
1616
1494
1611
1895
2199
2368
2291
2031
1732
1554
1607
1832
2125
2339
2339
2139
1851
1633
1593
1771
2066
2320
2391
2241
1954
1695
1594
1705
1957
2241
2402
2338
2094
1799
1621
1679
1917
2232
2450
2448
2243
1947
1723
1687
1889
2179
2446
2557
2426
2146
1862
1767
1906
2196
2494
2650
2579
2325
2021
1829
1858
2084
2391
2618
2618
2405
2107
1872
1840
2010
2288
2535
2611
2434
2128
1834
1711
1802
2066
2345
2495
2401
2117
1776
1535
1565
1774
2065
2273
2283
2079
1781
1535
1485
1651
1937
2189
2256
2106
1803
1520
1403
1517
1783
2097
2259
2183
1923
1595
1403
1445
1682
1994
2223
2237
2034
1726
1472
1419
1607
1906
2189
2287
2160
1879
1594
1444
1535
1803
2083
2229
2167
1930
1649
1470
1502
1725
2010
2227
2245
2036
1754
1535
1514
1694
1967
2224
2320
2193
1899
1602
1466
1569
1830
2128
2301
2223
1959
1650
1443
1487
1725
2013
2245
2273
2075
1762
1515
1453
1631
1933
2212
2320
2192
1915
1630
1490
1600
1855
2135
2310
2256
2019
1723
1535
1559
1761
2055
2267
2288
2101
1810
1583
1526
1710
1997
2263
2346
2186
1902
1615
1488
1605
1869
2163
2311
2239
1998
1707
1520
1535
1771
2066
2289
2301
2100
1789
1555
1513
1691
1983
2256
2350
2205
1918
1647
1531
1646
1902
2185
2338
2271
2022
1722
1520
1535
1787
2100
2321
2297
2073
1775
1535
1518
1700
2000
2283
2389
2257
1989
1722
1582
1664
1907
2191
2349
2273
2031
1741
1561
1582
1789
2077
2285
2320
2141
1840
1616
1556
1713
2003
2281
2384
2263
1984
1687
1554
1651
1931
2230
2386
2334
2095
1763
1556
1577
1798
2083
2311
2363
2205
1915
1657
1593
1746
2030
2297
2411
2283
2007
1749
1616
1711
1963
2254
2414
2351
2106
1782
1599
1614
1821
2113
2329
2349
2158
1858
1600
1527
1697
1985
2256
2379
2282
2005
1703
1553
1623
1853
2138
2309
2275
2067
1774
1581
1597
1792
2088
2321
2357
2161
1842
1585
1505
1654
1925
2197
2323
2245
2029
1804
1729
1893
2175
2447
2617
2591
2399
2170
2047
2144
2401
2703
2895
2854
2585
2218
1897
1751
1840
2058
2270
2355
2211
1918
1648
1523
1619
1867
2148
2320
2306
2096
1783
1563
1558
1745
2036
2276
2305
2128
1822
1581
1520
1683
1979
2253
2366
2242
1978
1699
1564
1649
1903
2197
2350
2285
2055
1776
1584
1589
1792
2070
2278
2304
2147
1856
1598
1535
1705
1978
2231
2336
2228
1965
1707
1582
1674
1918
2188
2355
2307
2096
1808
1623
1635
1840
2134
2379
2411
2239
1950
1712
1651
1811
2103
2352
2454
2334
2057
1776
1649
1746
1983
2274
2464
2435
2224
1942
1769
1778
1981
2279
2505
2550
2397
2140
1913
1846
1991
2271
2529
2656
2542
2270
1987
1843
1928
2187
2463
2639
2598
2375
2099
1898
1891
2077
2345
2547
2559
2398
2107
1842
1747
1867
2112
2337
2427
2315
2032
1728
1570
1631
1858
2128
2294
2250
2019
1730
1520
1510
1702
1970
2202
2253
2090
1797
1559
1491
1636
1899
2144
2255
2147
1905
1651
1485
1552
1795
2077
2250
2211
1996
1714
1507
1509
1727
2000
2209
2272
2117
1813
1562
1477
1622
1893
2153
2263
2177
1913
1631
1487
1565
1807
2103
2283
2238
2006
1711
1510
1516
1712
1989
2219
2263
2115
1827
1575
1490
1655
1954
2209
2304
2187
1936
1679
1521
1598
1834
2130
2315
2293
2076
1775
1581
1569
1731
1999
2226
2279
2127
1854
1615
1534
1685
1940
2192
2309
2210
1961
1684
1533
1603
1837
2114
2317
2315
2075
1762
1534
1511
1702
1998
2239
2288
2135
1882
1650
1563
1679
1936
2206
2333
2229
1978
1709
1552
1621
1867
2160
2343
2346
2151
1842
1632
1601
1753
2021
2246
2305
2160
1891
1654
1566
1697
1954
2220
2349
2267
2034
1767
1610
1670
1890
2160
2333
2320
2150
1904
1709
1675
1831
2091
2300
2345
2192
1916
1679
1610
1734
2001
2272
2402
2323
2078
1795
1637
1695
1920
2192
2360
2321
2122
1845
1664
1664
1856
2142
2354
2406
2271
2020
1780
1666
1759
2002
2259
2390
2307
2076
1813
1678
1743
1968
2247
2446
2448
2235
1942
1741
1728
1918
2183
2384
2409
2237
1947
1703
1617
1737
1984
2229
2341
2246
2000
1739
1600
1673
1892
2154
2320
2319
2128
1847
1653
1616
1776
2027
2256
2319
2163
1918
1683
1597
1712
1949
2190
2293
2199
1951
1695
1578
1678
1951
2304
2554
2582
2389
2114
1910
1933
2155
2466
2778
2927
2828
2557
2256
2086
2103
2257
2433
2491
2346
2046
1728
1555
1595
1793
2066
2242
2247
2070
1830
1639
1606
1769
2031
2267
2320
2143
1861
1623
1523
1648
1883
2145
2295
2247
2021
1766
1605
1643
1842
2111
2289
2279
2093
1813
1616
1600
1770
2031
2230
2288
2143
1886
1648
1557
1681
1937
2209
2354
2273
2019
1744
1595
1649
1866
2141
2330
2320
2137
1867
1677
1665
1837
2079
2291
2347
2202
1949
1712
1637
1775
2043
2320
2451
2368
2145
1889
1733
1771
1959
2239
2432
2455
2277
2011
1811
1799
1963
2234
2464
2545
2416
2173
1931
1849
1956
2198
2471
2623
2544
2329
2082
1933
1982
2193
2465
2681
2675
2463
2165
1946
1907
2064
2313
2523
2601
2457
2193
1935
1833
1926
2162
2394
2491
2389
2143
1862
1691
1719
1919
2164
2320
2304
2096
1795
1569
1526
1700
1972
2219
2288
2156
1877
1634
1528
1632
1874
2112
2239
2173
1941
1680
1521
1583
1779
2041
2231
2237
2042
1757
1534
1503
1694
1989
2247
2310
2159
1894
1645
1525
1621
1855
2109
2253
2197
1998
1744
1578
1605
1801
2066
2240
2243
2065
1807
1603
1571
1734
2007
2254
2334
2199
1936
1679
1559
1664
1904
2146
2259
2185
1959
1694
1522
1577
1792
2079
2302
2336
2157
1871
1654
1612
1747
2000
2237
2319
2189
1939
1703
1589
1681
1915
2182
2321
2242
2000
1737
1574
1599
1783
2037
2251
2290
2128
1867
1674
1610
1741
1981
2187
2242
2124
1887
1637
1535
1638
1873
2145
2295
2237
2010
1743
1575
1605
1791
2078
2283
2311
2147
1876
1649
1600
1751
2001
2224
2311
2207
1974
1731
1621
1712
1932
2160
2295
2243
2036
1761
1584
1616
1824
2102
2301
2324
2172
1891
1680
1655
1808
2073
2295
2369
2243
1989
1735
1630
1716
1935
2192
2337
2282
2064
1794
1630
1650
1839
2104
2291
2304
2130
1895
1689
1629
1760
2017
2243
2320
2210
1959
1714
1590
1662
1904
2176
2320
2268
2055
1786
1615
1626
1825
2119
2322
2327
2129
1835
1598
1523
1693
1984
2263
2405
2348
2159
1943
1847
1936
2171
2411
2555
2512
2331
2112
1965
1963
2114
2321
2452
2427
2198
1887
1646
1565
1698
1959
2225
2337
2236
1983
1739
1610
1680
1907
2187
2352
2304
2089
1815
1661
1678
1863
2152
2346
2350
2170
1898
1677
1602
1744
2011
2279
2378
2263
2017
1774
1648
1718
1942
2192
2338
2299
2099
1855
1679
1677
1857
2122
2326
2374
2207
1935
1703
1647
1779
2019
2267
2369
2270
2033
1778
1664
1747
1983
2238
2383
2348
2154
1895
1712
1734
1933
2194
2413
2448
2256
1969
1757
1707
1855
2106
2346
2448
2368
2137
1898
1777
1853
2092
2353
2512
2490
2303
2045
1871
1874
2074
2339
2559
2624
2494
2244
2015
1948
2077
2329
2554
2672
2588
2342
2075
1919
1975
2207
2467
2633
2601
2363
2068
1856
1821
1977
2231
2422
2449
2279
1991
1739
1648
1761
1991
2214
2304
2197
1939
1669
1519
1569
1790
2047
2210
2183
1986
1706
1518
1506
1698
1951
2160
2208
2065
1795
1552
1469
1602
1839
2062
2183
2104
1877
1633
1511
1600
1826
2065
2199
2147
1939
1681
1531
1533
1692
1949
2151
2213
2071
1817
1594
1509
1629
1856
2096
2218
2114
1873
1627
1483
1535
1762
2032
2224
2205
2001
1730
1535
1527
1712
1978
2194
2240
2096
1847
1629
1553
1674
1889
2126
2240
2159
1929
1650
1498
1568
1791
2067
2242
2230
2035
1769
1581
1563
1713
1945
2152
2212
2077
1827
1619
1535
1683
1939
2223
2359
2255
1974
1671
1501
1552
1776
2055
2236
2230
2047
1781
1582
1557
1713
1990
2222
2285
2167
1909
1680
1579
1679
1920
2163
2276
2209
1981
1728
1606
1654
1872
2145
2320
2306
2116
1851
1654
1631
1781
2038
2253
2288
2134
1852
1605
1507
1647
1903
2159
2284
2205
1991
1738
1577
1634
1840
2103
2277
2271
2084
1804
1610
1577
1739
2001
2225
2304
2187
1936
1682
1583
1707
1943
2177
2286
2192
1947
1677
1527
1563
1761
2036
2259
2301
2169
1951
1799
1825
1981
2225
2416
2479
2352
2130
1922
1839
1936
2151
2371
2464
2352
2085
1765
1575
1618
1831
2105
2269
2269
2073
1802
1623
1616
1777
2035
2255
2330
2207
1941
1687
1586
1702
1941
2205
2321
2254
2046
1803
1650
1694
1904
2171
2349
2329
2131
1872
1706
1701
1846
2082
2281
2324
2182
1950
1727
1626
1744
1985
2253
2389
2303
2074
1823
1696
1754
1966
2203
2359
2367
2187
1921
1744
1740
1910
2160
2357
2384
2225
1981
1772
1702
1808
2047
2294
2403
2330
2129
1902
1801
1870
2064
2295
2433
2400
2206
1957
1804
1809
2002
2261
2453
2497
2361
2135
1936
1883
2005
2251
2487
2611
2530
2309
2078
1970
2042
2247
2473
2601
2537
2348
2108
1926
1926
2091
2321
2511
2541
2401
2164
1953
1862
1937
2128
2320
2379
2269
2027
1774
1646
1691
1870
2091
2230
2215
2034
1808
1645
1631
1765
1984
2165
2192
2067
1825
1616
1535
1639
1840
2037
2129
2047
1840
1617
1523
1609
1793
1997
2124
2111
1939
1712
1535
1535
1708
1938
2127
2173
2015
1767
1570
1499
1613
1823
2029
2127
2037
1845
1651
1578
1650
1849
2077
2191
2151
1946
1686
1511
1523
1712
1947
2126
2130
2013
1821
1648
1589
1671
1872
2081
2167
2086
1884
1679
1587
1649
1831
2037
2186
2165
1983
1751
1590
1590
1763
1993
2173
2192
2054
1810
1644
1602
1732
1946
2147
2233
2155
1931
1703
1599
1665
1856
2071
2188
2158
1982
1769
1630
1648
1813
2032
2205
2220
2076
1863
1668
1598
1709
1911
2113
2192
2113
1920
1731
1647
1715
1904
2117
2235
2213
2035
1839
1723
1727
1866
2062
2198
2219
2085
1872
1700
1644
1744
1938
2131
2213
2129
1931
1719
1637
1718
1884
2083
2193
2160
1995
1781
1623
1616
1770
1964
2118
2157
2032
1840
1679
1621
1744
1951
2128
2173
2079
1904
1713
1630
1679
1843
2032
2178
2205
2093
1910
1808
1847
2032
2246
2397
2409
2288
2128
2011
2015
2125
2279
2407
2435
2302
2080
1840
1695
1707
1847
2027
2142
2112
1953
1758
1634
1654
1808
2001
2164
2198
2086
1891
1713
1658
1761
1959
2149
2219
2125
1933
1733
1643
1697
1873
2071
2190
2171
2007
1823
1723
1728
1860
2027
2155
2169
2037
1840
1670
1630
1750
1936
2111
2187
2112
1922
1741
1665
1753
1936
2117
2218
2192
2039
1840
1719
1722
1886
2087
2230
2269
2134
1933
1783
1770
1889
2090
2256
2289
2143
1934
1742
1666
1747
1932
2123
2239
2210
2061
1874
1763
1790
1937
2135
2275
2303
2201
2017
1877
1856
1963
2139
2324
2407
2321
2140
1951
1874
1963
2143
2320
2431
2402
2240
2054
1939
1959
2106
2277
2384
2358
2214
2016
1851
1817
1933
2103
2257
2288
2183
1978
1783
1702
1751
1906
2081
2159
2114
1952
1760
1639
1659
1787
1951
2065
2077
1951
1793
1659
1616
1722
1902
2055
2121
2063
1890
1726
1645
1699
1872
2044
2128
2063
1895
1712
1622
1653
1787
1970
2108
2113
1978
1791
1661
1630
1745
1919
2085
2137
2032
1881
1743
1663
1705
1858
2032
2123
2071
1911
1751
1663
1690
1822
1983
2111
2109
1977
1803
1667
1643
1746
1917
2053
2103
2026
1876
1722
1655
1721
1893
2037
2113
2075
1919
1755
1674
1709
1843
1984
2100
2107
1983
1808
1654
1618
1712
1887
2035
2097
2013
1845
1680
1603
1666
1814
1982
2098
2079
1919
1756
1651
1667
1790
1939
2043
2054
1936
1770
1638
1629
1744
1904
2023
2058
1964
1806
1659
1593
1657
1809
1986
2081
2064
1903
1728
1643
1650
1795
1972
2099
2096
1953
1792
1676
1655
1759
1927
2047
2064
1979
1838
1699
1651
1728
1889
2044
2123
2084
1945
1811
1729
1741
1857
2000
2111
2112
1980
1813
1703
1705
1813
1978
2112
2132
2019
1856
1715
1667
1746
1904
2064
2135
2084
1923
1750
1664
1697
1827
1984
2099
2096
1979
1808
1680
1678
1787
1932
2043
2080
1989
1847
1720
1683
1769
1927
2071
2146
2093
1919
1759
1670
1715
1881
2073
2245
2288
2201
2066
1986
2022
2169
2368
2553
2645
2594
2420
2230
2107
2094
2163
2257
2285
2186
2001
1827
1721
1723
1829
1975
2077
2067
1936
1769
1662
1663
1779
1963
2082
2096
1975
1799
1649
1603
1686
1862
2029
2123
2093
1939
1781
1701
1718
1846
2001
2114
2110
1990
1833
1718
1707
1794
1948
2078
2103
2011
1856
1726
1688
1767
1917
2073
2154
2117
1983
1826
1744
1749
1866
1999
2107
2115
2001
1857
1746
1747
1883
2054
2160
2163
2084
1933
1823
1803
1867
2014
2157
2224
2180
2037
1911
1846
1905
2034
2182
2272
2269
2181
2047
1936
1919
2013
2160
2286
2323
2255
2133
2028
1986
2067
2227
2365
2423
2384
2260
2126
2035
2045
2162
2317
2417
2439
2347
2208
2089
2064
2151
2267
2363
2367
2274
2115
1976
1932
1979
2117
2235
2288
2252
2128
1990
1883
1857
1936
2054
2128
2122
2014
1855
1729
1733
1827
1969
2083
2116
2046
1918
1805
1751
1808
1918
2034
2103
2085
1958
1809
1735
1766
1907
2064
2143
2128
2041
1907
1803
1790
1879
2012
2131
2171
2099
1947
1809
1776
1840
1968
2102
2160
2113
1985
1845
1789
1839
1955
2078
2146
2128
2009
1878
1778
1779
1883
2041
2181
2211
2119
1978
1850
1797
1839
1953
2064
2117
2066
1930
1782
1712
1754
1885
2018
2111
2128
2032
1881
1776
1744
1808
1918
2022
2047
1978
1843
1729
1689
1744
1872
2009
2079
2037
1906
1758
1664
1664
1774
1910
2013
2000
1911
1778
1678
1654
1730
1856
1967
1986
1914
1774
1651
1610
1663
1769
1906
1974
1930
1787
1630
1531
1535
1662
1795
1887
1889
1799
1653
1535
1522
1614
1748
1870
1901
1824
1695
1582
1520
1579
1695
1822
1904
1884
1762
1600
1491
1488
1614
1767
1882
1914
1840
1722
1618
1599
1664
1781
1898
1943
1903
1764
1641
1579
1629
1771
1919
2004
2001
1899
1775
1697
1706
1815
1949
2064
2096
2003
1873
1740
1683
1739
1853
1982
2073
2067
1978
1856
1771
1782
1878
2000
2094
2097
2001
1886
1808
1802
1885
2019
2135
2169
2102
1961
1833
1775
1811
1936
2096
2175
2149
2010
1870
1783
1795
1913
2054
2140
2146
2035
1909
1809
1782
1853
1986
2122
2174
2112
1993
1870
1808
1846
1967
2096
2160
2151
2059
1914
1809
1803
1919
2063
2151
2158
2065
1942
1831
1781
1835
1961
2095
2146
2096
1963
1828
1742
1758
1871
1994
2093
2095
1971
1838
1741
1744
1842
1984
2101
2125
2047
1909
1779
1754
1829
1936
2045
2089
2034
1904
1765
1723
1808
1971
2176
2314
2343
2259
2143
2082
2110
2247
2448
2633
2706
2650
2487
2318
2198
2174
2207
2258
2261
2167
1997
1826
1729
1746
1858
1997
2092
2090
1979
1840
1750
1748
1846
1997
2115
2133
2035
1895
1767
1725
1802
1922
2066
2141
2079
1936
1807
1733
1758
1867
2000
2077
2060
1963
1823
1723
1712
1799
1936
2057
2086
2003
1879
1771
1741
1808
1941
2079
2134
2087
1949
1811
1744
1770
1897
2039
2150
2165
2069
1927
1803
1777
1867
2003
2123
2141
2077
1937
1833
1783
1835
1955
2081
2158
2126
2018
1890
1807
1837
1943
2087
2197
2224
2116
1968
1879
1895
2000
2147
2262
2305
2239
2105
1995
1938
2015
2160
2301
2387
2368
2243
2109
2039
2083
2192
2323
2422
2419
2305
2165
2079
2077
2166
2303
2407
2418
2350
2215
2069
1985
2015
2146
2274
2319
2254
2115
1949
1841
1834
1919
2032
2116
2107
1991
1856
1753
1750
1841
1971
2085
2121
2038
1890
1749
1692
1745
1872
2016
2095
2061
1920
1763
1664
1675
1797
1958
2077
2061
1935
1782
1680
1648
1735
1873
1995
2037
1983
1870
1753
1721
1776
1880
1997
2063
2029
1900
1759
1667
1680
1792
1941
2058
2079
1985
1851
1741
1715
1817
1965
2055
2085
2005
1859
1713
1648
1688
1814
1963
2065
2038
1925
1791
1712
1730
1840
1982
2090
2097
1986
1841
1742
1725
1819
1947
2074
2103
2029
1885
1769
1723
1790
1928
2082
2172
2146
2010
1840
1725
1719
1806
1943
2068
2082
1967
1812
1712
1701
1804
1963
2095
2126
2060
1921
1785
1725
1762
1891
2032
2128
2114
2001
1856
1767
1777
1871
1991
2097
2114
2031
1888
1775
1731
1808
1951
2112
2160
2073
1917
1790
1725
1773
1903
2047
2137
2119
1995
1850
1745
1750
1856
1985
2094
2108
2015
1882
1757
1717
1798
1941
2092
2151
2087
1946
1818
1731
1762
1883
2031
2122
2101
1969
1826
1728
1733
1843
1984
2096
2112
2016
1875
1757
1723
1811
1954
2098
2179
2128
1979
1809
1726
1755
1870
2007
2109
2096
1982
1835
1726
1714
1819
1969
2086
2108
2013
1870
1744
1718
1805
1949
2080
2121
2054
1914
1765
1701
1739
1888
2043
2144
2128
2000
1850
1767
1786
1892
2032
2122
2129
2039
1929
1821
1783
1871
1991
2125
2167
2107
1968
1835
1763
1796
1922
2068
2152
2132
2017
1865
1771
1808
1936
2079
2175
2165
2055
1887
1747
1699
1764
1907
2071
2160
2098
1924
1779
1703
1734
1872
2033
2135
2127
1993
1841
1728
1711
1807
1973
2096
2103
1999
1862
1771
1775
1902
2106
2291
2390
2361
2241
2119
2075
2159
2358
2603
2765
2791
2667
2455
2272
2160
2160
2229
2288
2251
2105
1919
1761
1712
1779
1931
2103
2186
2127
1983
1836
1748
1776
1885
2027
2127
2112
1974
1835
1737
1750
1856
1987
2105
2123
2015
1878
1763
1728
1791
1925
2064
2133
2082
1947
1795
1727
1763
1893
2046
2147
2121
1998
1843
1744
1742
1844
1981
2096
2125
2035
1890
1761
1714
1791
1943
2095
2165
2112
1974
1834
1750
1792
1921
2064
2139
2114
1998
1869
1794
1808
1915
2079
2207
2242
2144
1995
1857
1818
1893
2027
2182
2259
2217
2095
1953
1902
1927
2054
2214
2317
2309
2198
2059
1950
1946
2063
2221
2371
2426
2355
2212
2071
2001
2079
2203
2337
2404
2355
2231
2096
2011
2030
2150
2291
2389
2387
2282
2133
2019
2002
2062
2157
2240
2253
2156
2010
1865
1792
1825
1941
2065
2117
2064
1923
1776
1679
1682
1792
1933
2033
2032
1933
1799
1697
1666
1738
1856
1973
1995
1911
1773
1645
1610
1675
1813
1946
2000
1959
1838
1680
1593
1630
1765
1919
2034
2064
1957
1808
1689
1649
1721
1844
1966
1989
1919
1781
1661
1616
1680
1833
1967
2026
1983
1843
1683
1621
1648
1756
1910
2032
2037
1926
1771
1648
1620
1712
1839
1939
1977
1910
1793
1674
1621
1679
1797
1933
2003
1969
1856
1715
1659
1683
1818
1966
2044
2017
1878
1723
1603
1593
1680
1811
1941
1990
1923
1792
1663
1611
1674
1814
1957
2025
1985
1856
1731
1673
1693
1791
1918
2000
1983
1877
1737
1645
1627
1714
1867
1984
2022
1950
1810
1671
1616
1683
1823
1975
2034
1966
1827
1686
1620
1648
1770
1912
2013
2013
1914
1772
1671
1649
1756
1914
2029
2054
1962
1815
1681
1635
1695
1817
1949
2001
1968
1856
1722
1631
1643
1750
1898
1999
2013
1919
1778
1668
1633
1715
1833
1941
1978
1916
1775
1654
1637
1701
1821
1954
2025
1995
1882
1747
1653
1665
1774
1904
1999
2000
1904
1770
1677
1664
1760
1894
2003
2032
1967
1846
1722
1664
1706
1821
1966
2035
2000
1878
1744
1675
1709
1839
1973
2064
2058
1966
1821
1731
1719
1802
1957
2091
2122
2029
1873
1730
1664
1709
1817
1939
2015
2000
1902
1770
1680
1691
1801
1917
2003
2013
1935
1793
1675
1652
1741
1882
2013
2064
1985
1853
1718
1664
1712
1844
1999
2090
2064
1931
1766
1657
1647
1744
1908
2065
2128
2101
2017
1959
1965
2065
2205
2349
2421
2416
2348
2279
2266
2311
2365
2419
2402
2290
2099
1886
1744
1717
1793
1919
2015
2003
1907
1776
1663
1648
1717
1854
1967
2014
1955
1827
1698
1647
1695
1830
1980
2047
2017
1894
1756
1681
1701
1813
1966
2068
2078
1970
1830
1727
1687
1767
1905
2000
2057
2014
1904
1776
1714
1759
1888
2028
2111
2064
1910
1767
1692
1712
1840
1991
2094
2095
1986
1860
1749
1735
1817
1954
2094
2143
2084
1948
1814
1754
1795
1906
2041
2122
2113
2018
1895
1824
1852
1966
2113
2224
2256
2161
2017
1904
1859
1924
2065
2204
2271
2224
2122
1997
1945
2000
2149
2303
2384
2353
2245
2107
2027
2029
2140
2277
2378
2398
2319
2191
2090
2059
2133
2254
2367
2413
2350
2220
2071
1999
2032
2130
2247
2314
2261
2110
1935
1838
1829
1932
2047
2133
2131
2025
1862
1715
1653
1728
1863
1986
2037
1973
1843
1712
1642
1687
1798
1936
2023
2003
1885
1742
1651
1653
1759
1895
2000
2030
1947
1815
1703
1674
1744
1866
1994
2045
1989
1853
1719
1645
1685
1808
1954
2025
2000
1879
1733
1650
1667
1778
1931
2065
2096
2002
1853
1722
1677
1734
1866
2007
2087
2032
1891
1735
1665
1728
1865
2006
2096
2071
1944
1811
1727
1731
1835
1973
2085
2108
2009
1866
1739
1710
1786
1930
2058
2106
2047
1917
1776
1706
1753
1891
2041
2142
2130
2021
1867
1758
1750
1853
1990
2095
2116
2031
1894
1776
1756
1839
1963
2095
2160
2117
1989
1836
1741
1750
1885
2023
2100
2069
1978
1847
1756
1759
1856
2000
2129
2174
2096
1931
1824
1795
1861
1971
2091
2153
2115
1986
1825
1744
1764
1893
2047
2160
2157
2063
1910
1794
1782
1882
2033
2170
2202
2127
1974
1830
1792
1854
1979
2111
2171
2130
2000
1868
1808
1838
1951
2109
2199
2191
2066
1917
1834
1845
1966
2111
2209
2225
2127
1990
1863
1827
1888
1999
2121
2176
2113
1991
1855
1806
1853
1970
2115
2191
2170
2061
1895
1782
1775
1873
2018
2150
2195
2112
1979
1855
1808
1857
1985
2147
2207
2175
2019
1847
1773
1806
1932
2122
2265
2303
2233
2096
2000
2015
2131
2260
2352
2403
2366
2288
2209
2176
2226
2320
2381
2380
2279
2107
1919
1807
1808
1909
2039
2127
2118
2031
1921
1841
1849
1965
2108
2213
2236
2167
2025
1885
1833
1904
2038
2160
2199
2163
2054
1936
1872
1906
2037
2185
2281
2273
2150
1981
1873
1882
2006
2161
2285
2291
2189
2025
1904
1871
1954
2095
2231
2283
2224
2107
1997
1934
1945
2042
2192
2302
2303
2193
2063
1943
1929
2034
2167
2288
2327
2255
2117
1975
1935
2013
2171
2309
2384
2346
2219
2081
1999
2032
2153
2282
2384
2387
2311
2192
2081
2062
2133
2259
2394
2432
2379
2258
2169
2147
2219
2363
2512
2586
2532
2407
2271
2192
2210
2329
2480
2579
2602
2502
2339
2215
2190
2298
2427
2524
2544
2482
2347
2195
2115
2145
2243
2341
2371
2281
2143
1991
1910
1929
2031
2141
2224
2215
2123
1985
1873
1854
1929
2057
2161
2185
2069
1903
1761
1711
1782
1911
2037
2096
2047
1938
1814
1733
1743
1847
2000
2106
2114
2010
1876
1787
1787
1879
1991
2101
2142
2059
1921
1783
1723
1771
1901
2041
2123
2090
1963
1840
1770
1787
1881
2011
2114
2129
2017
1870
1751
1742
1837
1984
2101
2141
2078
1931
1799
1757
1826
1964
2094
2149
2108
1972
1843
1774
1797
1904
2043
2135
2134
2027
1872
1747
1719
1795
1936
2070
2124
2066
1943
1813
1744
1811
1943
2099
2171
2126
2000
1847
1764
1777
1904
2053
2160
2154
2047
1904
1780
1735
1808
1944
2087
2131
2064
1931
1792
1742
1807
1950
2103
2170
2123
1984
1841
1765
1791
1911
2043
2141
2127
2023
1883
1779
1758
1856
2005
2145
2198
2143
2018
1887
1827
1885
2029
2170
2226
2176
2035
1890
1809
1809
1922
2083
2191
2188
2075
1917
1792
1779
1871
2000
2112
2137
2068
1948
1842
1781
1818
1941
2083
2159
2127
2000
1839
1758
1776
1886
2030
2128
2134
2039
1921
1833
1808
1885
2014
2126
2160
2094
1949
1808
1741
1791
1914
2073
2179
2203
2132
2029
1957
1989
2111
2229
2303
2315
2247
2159
2105
2113
2193
2298
2363
2349
2243
2068
1887
1797
1810
1927
2064
2128
2108
1997
1852
1761
1775
1908
2067
2167
2182
2093
1954
1828
1790
1855
1984
2123
2179
2127
1997
1853
1787
1838
1962
2112
2199
2182
2047
1899
1810
1809
1921
2073
2183
2192
2091
1937
1841
1814
1893
2018
2143
2197
2151
2025
1872
1805
1855
1991
2131
2218
2191
2069
1917
1813
1825
1963
2128
2239
2234
2139
2001
1918
1915
1985
2116
2241
2288
2190
2032
1888
1835
1895
2041
2224
2303
2267
2134
2000
1918
1922
2031
2185
2298
2330
2263
2138
2025
1998
2100
2254
2393
2441
2383
2242
2102
2046
2102
2239
2389
2483
2455
2320
2158
2062
2077
2192
2330
2418
2409
2302
2157
2031
1983
2025
2128
2233
2263
2189
2046
1904
1829
1861
1975
2096
2147
2095
1965
1818
1730
1726
1829
1949
2062
2092
1985
1841
1747
1735
1782
1904
2025
2069
1999
1872
1734
1671
1733
1879
2022
2097
2058
1918
1765
1680
1691
1801
1935
2045
2064
1968
1829
1712
1692
1771
1899
2029
2103
2061
1924
1790
1735
1779
1908
2030
2091
2071
1963
1794
1687
1683
1798
1969
2096
2112
2027
1871
1731
1682
1744
1867
2000
2077
2047
1938
1813
1747
1801
1929
2063
2135
2119
1998
1841
1742
1735
1827
1963
2076
2112
2041
1899
1775
1744
1810
1934
2047
2100
2034
1901
1759
1708
1773
1890
2017
2096
2083
1968
1849
1763
1759
1837
1968
2074
2096
2023
1897
1791
1758
1815
1927
2034
2090
2014
1894
1761
1712
1755
1873
2015
2113
2112
2002
1851
1751
1763
1873
2027
2151
2175
2087
1961
1842
1787
1839
1965
2098
2150
2103
1965
1802
1723
1764
1885
2019
2114
2087
1962
1807
1712
1712
1824
1963
2080
2107
2017
1872
1721
1670
1764
1923
2077
2128
2081
1966
1840
1775
1792
1893
2021
2096
2078
1967
1801
1677
1669
1771
1919
2059
2115
2077
2017
1948
1931
2007
2165
2311
2402
2371
2266
2166
2104
2113
2194
2295
2359
2311
2150
1921
1754
1695
1763
1904
2032
2090
2006
1865
1729
1685
1761
1902
2037
2099
2047
1911
1744
1650
1680
1803
1946
2047
2047
1933
1791
1706
1701
1822
1972
2099
2122
2064
1917
1766
1699
1757
1895
2031
2096
2023
1901
1751
1665
1689
1820
1971
2082
2085
1984
1856
1776
1775
1881
1999
2080
2083
1971
1829
1707
1668
1739
1892
2033
2110
2047
1923
1794
1733
1775
1873
1999
2094
2103
2010
1862
1771
1761
1867
2015
2142
2187
2114
1965
1814
1766
1831
1969
2112
2175
2129
2016
1904
1834
1865
1991
2150
2256
2256
2160
2006
1902
1897
1996
2133
2253
2298
2240
2125
1983
1932
1989
2117
2247
2315
2256
2115
1953
1857
1863
1957
2075
2142
2127
2014
1873
1745
1712
1783
1907
2026
2043
1935
1776
1646
1616
1712
1865
2011
2079
2019
1866
1711
1643
1683
1811
1954
2030
1981
1846
1712
1647
1677
1802
1951
2061
2058
1941
1789
1679
1681
1821
2005
2121
2130
2039
1889
1751
1712
1779
1927
2065
2139
2115
1973
1831
1749
1776
1890
2031
2133
2127
2015
1890
1792
1779
1859
1983
2107
2135
2055
1906
1785
1753
1809
1947
2091
2161
2133
2010
1857
1778
1799
1917
2047
2141
2127
2019
1872
1765
1755
1853
1968
2067
2102
2019
1879
1758
1725
1797
1941
2085
2138
2080
1943
1803
1718
1729
1843
1995
2099
2095
1969
1809
1690
1663
1776
1927
2035
2064
1978
1840
1714
1666
1721
1860
1990
2043
1983
1823
1661
1565
1570
1702
1839
1923
1936
1838
1693
1583
1562
1651
1798
1899
1922
1846
1706
1567
1518
1594
1728
1868
1938
1900
1743
1575
1488
1531
1662
1802
1883
1883
1790
1651
1535
1499
1584
1733
1870
1941
1904
1798
1678
1643
1723
1875
1993
2057
2013
1902
1757
1659
1664
1802
1954
2064
2085
1985
1818
1711
1662
1747
1881
2014
2095
2047
1885
1727
1671
1712
1853
2000
2103
2091
1969
1834
1739
1744
1836
1974
2087
2102
2003
1874
1765
1724
1795
1947
2115
2193
2137
1975
1801
1699
1735
1914
2115
2277
2324
2256
2137
2047
2062
2192
2384
2544
2609
2559
2453
2288
2186
2186
2254
2334
2355
2259
2088
1888
1795
1803
1913
2065
2175
2170
2035
1891
1791
1791
1904
2046
2162
2192
2101
1956
1829
1793
1863
1995
2128
2198
2144
2000
1863
1803
1831
1955
2109
2217
2218
2103
1955
1847
1817
1902
2039
2165
2200
2123
1983
1856
1808
1872
2023
2189
2263
2221
2080
1907
1823
1842
1968
2125
2219
2207
2090
1935
1841
1856
1965
2102
2224
2257
2167
2020
1872
1820
1904
2067
2229
2295
2230
2098
1955
1877
1889
2011
2176
2304
2319
2203
2058
1926
1910
2000
2156
2288
2327
2254
2128
2011
1982
2047
2191
2339
2415
2390
2287
2112
2000
2005
2119
2270
2384
2418
2317
2166
2055
2031
2119
2244
2352
2386
2303
2144
1987
1919
1967
2092
2221
2273
2220
2085
1925
1842
1853
1970
2103
2187
2187
2082
1921
1805
1778
1860
1991
2111
2138
2069
1920
1791
1741
1799
1941
2087
2145
2112
1967
1807
1729
1747
1872
2014
2134
2145
2044
1882
1760
1732
1814
1979
2114
2149
2065
1920
1786
1719
1767
1907
2089
2178
2130
2003
1861
1791
1808
1913
2062
2174
2159
2038
1885
1763
1744
1872
2027
2151
2186
2119
1983
1856
1795
1857
2019
2176
2243
2192
2058
1902
1813
1837
1943
2124
2250
2247
2128
1968
1840
1806
1897
2058
2193
2218
2138
1990
1843
1806
1880
2007
2144
2198
2161
2041
1907
1815
1827
1933
2077
2176
2179
2074
1906
1792
1783
1892
2064
2186
2192
2097
1937
1792
1741
1795
1951
2122
2209
2192
2082
1918
1786
1782
1887
2031
2122
2124
1999
1877
1751
1728
1815
1995
2154
2183
2096
1936
1809
1773
1813
1950
2096
2172
2134
1991
1840
1745
1758
1870
2015
2137
2162
2047
1883
1765
1744
1831
1968
2109
2160
2107
1968
1837
1764
1813
1953
2107
2165
2118
1982
1827
1738
1762
1890
2046
2140
2143
2032
1891
1778
1744
1809
1949
2106
2160
2098
1957
1794
1724
1778
1917
2079
2143
2109
1967
1814
1735
1763
1872
2023
2145
2159
2046
1882
1759
1723
1808
1966
2111
2167
2098
1951
1797
1731
1776
1911
2064
2160
2127
1989
1839
1746
1751
1861
2023
2141
2161
2047
1872
1748
1723
1814
1968
2096
2145
2066
1911
1767
1715
1766
1907
2047
2117
2087
1967
1814
1717
1733
1849
2000
2129
2145
2047
1907
1821
1808
1879
2015
2121
2150
2076
1920
1775
1712
1778
1907
2060
2131
2115
1987
1822
1726
1742
1855
2002
2125
2128
2016
1883
1769
1729
1809
1947
2103
2169
2100
1927
1765
1669
1690
1813
1977
2076
2074
1969
1831
1732
1743
1862
2007
2112
2105
1972
1808
1682
1663
1775
1936
2110
2194
2176
2096
2015
1993
2058
2192
2352
2475
2501
2440
2327
2256
2253
2299
2353
2383
2331
2174
1971
1807
1743
1815
1943
2079
2128
2065
1917
1776
1694
1735
1870
2010
2106
2095
1968
1813
1699
1702
1806
1936
2032
2045
1939
1808
1695
1680
1779
1921
2064
2112
2057
1922
1776
1719
1761
1881
2014
2090
2047
1929
1808
1730
1744
1863
2019
2158
2186
2086
1914
1776
1743
1838
1982
2090
2128
2063
1920
1793
1738
1783
1911
2064
2157
2145
2007
1857
1764
1776
1887
2028
2143
2163
2077
1911
1779
1748
1840
2007
2167
2263
2235
2117
1947
1856
1873
2000
2135
2246
2247
2133
1987
1879
1886
2015
2173
2281
2309
2215
2071
1953
1933
2020
2165
2295
2351
2291
2153
2013
1948
1984
2115
2259
2352
2343
2214
2032
1904
1882
1968
2096
2181
2185
2096
1951
1829
1790
1840
1953
2080
2121
2061
1919
1764
1670
1690
1835
1995
2096
2074
1949
1798
1680
1662
1761
1904
2007
2033
1950
1809
1680
1621
1691
1834
1985
2047
2000
1888
1744
1649
1655
1763
1905
1998
2000
1901
1757
1658
1650
1751
1886
1997
2021
1926
1776
1655
1618
1710
1857
2005
2083
2032
1902
1749
1670
1712
1842
2007
2128
2117
1989
1818
1709
1681
1775
1915
2020
2060
1971
1835
1707
1666
1734
1869
2017
2097
2047
1904
1751
1695
1747
1888
2026
2098
2071
1947
1802
1698
1685
1766
1904
2058
2122
2080
1951
1815
1761
1833
1966
2089
2130
2082
1939
1787
1727
1792
1936
2073
2129
2098
1961
1811
1714
1727
1836
1984
2115
2155
2078
1921
1789
1735
1808
1953
2095
2144
2096
1965
1823
1749
1791
1917
2066
2166
2164
2059
1903
1801
1783
1871
1998
2115
2157
2075
1931
1803
1779
1856
1971
2101
2171
2132
1995
1843
1763
1794
1920
2074
2170
2162
2062
1919
1801
1788
1886
2027
2135
2167
2093
1951
1823
1767
1821
1968
2113
2176
2128
1984
1834
1753
1793
1942
2102
2195
2193
2095
1951
1835
1803
1879
2029
2160
2203
2111
1964
1835
1776
1840
1980
2119
2189
2155
2045
1906
1810
1828
1922
2066
2159
2151
2047
1921
1822
1808
1907
2058
2178
2227
2160
2025
1878
1821
1866
2000
2143
2219
2171
2053
1905
1809
1830
1958
2107
2214
2220
