1699
1663
1618
1579
1600
1661
1710
1741
1757
1753
1729
1727
1776
1834
1898
1955
2000
1985
1937
1882
1867
1872
1922
1991
2058
2073
2022
1936
1869
1845
1873
1935
1998
2015
1995
1927
1852
1799
1771
1746
1773
1808
1826
1822
1792
1774
1776
1797
1834
1861
1886
1871
1842
1799
1775
1759
1763
1775
1771
1765
1751
1749
1742
1749
1770
1831
1873
1903
1906
1916
1903
1872
1876
1916
1968
1999
1999
1954
1877
1815
1803
1837
1890
1935
1939
1902
1881
1866
1856
1872
1920
1961
1984
2001
2000
1983
1981
2005
2046
2094
2110
2096
2069
2046
2047
2079
2112
2146
2160
2173
2145
2109
2067
2032
2026
2066
2064
2054
2027
2000
1994
2010
2064
2097
2091
2047
2006
1945
1883
1839
1840
1865
1910
1951
1951
1913
1861
1818
1806
1808
1819
1839
1863
1882
1905
1934
1968
2011
2059
2055
2019
1959
1916
1883
1869
1871
1904
1964
2000
2015
2005
1984
1940
1915
1905
1919
1968
1985
1958
1906
1865
1847
1877
1931
2000
2033
2031
1983
1939
1917
1911
1942
1999
2058
2064
2027
1970
1949
1948
1985
2033
2069
2083
2062
2019
1974
1951
1954
1975
2015
2033
1994
1918
1862
1855
1891
1931
1974
2000
2008
1998
1967
1942
1959
2000
2043
2078
2081
2038
1985
1963
1953
1962
1997
2032
2071
2099
2106
2110
2085
2088
2111
2117
2102
2077
2046
1998
1946
1939
1968
2023
2097
2128
2118
2058
1987
1927
1919
1922
1973
2096
2197
2273
2273
2247
2209
2192
2224
2262
2270
2233
2163
2079
2044
2080
2161
2239
2257
2223
2144
2065
2043
2034
2032
2038
2055
2055
2021
1983
1938
1920
1942
1965
1978
1984
1994
1995
1995
2002
2032
2061
2073
2071
2071
2046
2025
2000
2004
2017
2046
2118
2150
2144
2112
2083
2064
2076
2111
2128
2144
2148
2129
2117
2127
2147
2183
2209
2212
2170
2117
2094
2095
2111
2150
2194
2255
2285
2273
2227
2201
2208
2234
2285
2320
2304
2258
2224
2199
2185
2199
2230
2258
2306
2352
2364
2352
2315
2289
2276
2274
2256
2217
2143
2083
2064
2058
2070
2107
2138
2135
2096
2042
2005
2003
2039
2101
2158
2155
2117
2038
1955
1908
1926
1991
2093
2176
2219
2224
2195
2159
2128
2127
2130
2126
2105
2066
2042
2064
2111
2152
2173
2179
2155
2094
2064
2033
2047
2106
2144
2174
2176
2150
2112
2090
2063
2051
2057
2081
2096
2090
2027
1980
1936
1931
1983
2064
2132
2154
2127
2085
2034
2019
2043
2099
2159
2187
2176
2133
2095
2073
2071
2083
2112
2125
2122
2103
2091
2065
2042
2000
1987
2017
2069
2096
2085
2059
2035
2024
2017
2027
2032
2027
2000
1973
1973
2003
2047
2086
2100
2106
2063
1998
1936
1904
1904
1953
2013
2062
2080
2096
2106
2121
2155
2192
2218
2225
2220
2207
2209
2240
2324
2416
2479
2475
2423
2339
2256
2165
2109
2073
2047
2070
2092
2079
2037
1973
1943
1943
1987
2057
2085
2075
2033
1989
1973
1984
2007
2064
2087
2081
2047
1996
1959
1941
1972
2021
2068
2092
2064
2027
2009
2021
2060
2123
2187
2222
2214
2192
2140
2082
2044
2035
2058
2058
2065
2081
2078
2066
2071
2096
2135
2167
2166
2151
2130
2125
2133
2171
2235
2306
2385
2421
2417
2383
2319
2271
2274
2310
2356
2403
2417
2390
2354
2305
2297
2319
2358
2387
2380
2337
2262
2215
2222
2250
2289
2326
2335
2326
2285
2221
2155
2113
2109
2128
2132
2096
2061
2031
2028
2038
2065
2085
2086
2065
2019
1989
1973
2019
2084
2149
2182
2182
2157
2109
2065
2054
2066
2099
2111
2093
2047
1989
1931
1908
1919
1953
2006
2061
2069
2034
1993
1955
1955
1978
1982
1973
1978
1982
1959
1934
1925
1950
1982
2032
2064
2047
2000
1949
1925
1941
1986
2042
2092
2095
2078
2061
2047
2054
2055
2036
2011
1990
1967
1920
1890
1895
1949
2021
2067
2062
2022
1953
1919
1937
2000
2071
2132
2158
2122
2055
1975
1911
1920
1950
1997
2035
2058
2030
1971
1957
1971
2014
2066
2107
2115
2080
2032
1991
1983
2029
2100
2148
2160
2121
2057
1968
1907
1897
1911
1968
2015
2035
2035
2007
1984
2000
2069
2169
2225
2221
2173
2096
2015
1987
2000
2061
2134
2185
2182
2154
2103
2070
2073
2086
2113
2160
2178
2176
2124
2080
2054
2077
2114
2154
2167
2159
2112
2100
2077
2090
2126
2128
2085
2003
1926
1893
1887
1914
1984
2063
2129
2165
2167
2130
2089
2069
2079
2117
2160
2178
2186
2176
2151
2122
2128
2155
2175
2195
2183
2130
2087
2075
2096
2137
2195
2260
2287
2269
2218
2160
2142
2135
2160
2210
2267
2297
2301
2289
2311
2323
2369
2422
2479
2461
2431
2380
2338
2320
2339
2365
2401
2416
2374
2329
2305
2285
2267
2256
2260
2257
2259
2253
2227
2211
2215
2237
2289
2330
2320
2244
2163
2094
2038
2017
2032
2078
2124
2154
2161
2159
2117
2097
2101
2112
2113
2115
2112
2102
2085
2081
2070
2064
2047
2032
2014
2013
2042
2091
2128
2163
2192
2189
2153
2097
2044
2034
2061
2093
2137
2171
2173
2144
2112
2097
2111
2141
2199
2211
2162
2097
2021
1973
1981
2027
2105
2161
2166
2128
2096
2067
2083
2110
2134
2154
2145
2106
2057
2015
2034
2084
2143
2173
2169
2128
2091
2043
2012
2023
2053
2083
2103
2112
2082
2071
2054
2061
2075
2105
2150
2197
2193
2155
2108
2087
2096
2122
2133
2122
2077
2038
2011
2023
2077
2128
2160
2170
2158
2122
2074
2053
2042
2055
2071
2093
2130
2160
2135
2096
2064
2096
2159
2235
2288
2301
2269
2201
2128
2046
1979
1935
1921
1937
1952
1954
1973
1991
2037
2110
2201
2257
2251
2222
2192
2166
2165
2183
2208
2211
2193
2159
2096
2064
2077
2137
2209
2256
2273
2246
2192
2127
2081
2064
2091
2122
2146
2143
2145
2128
2113
2096
2065
2058
2068
2064
2062
2063
2070
2086
2079
2101
2138
2170
2180
2160
2135
2107
2123
2162
2207
2226
2221
2215
2203
2197
2224
2289
2343
2340
2318
2274
2230
2195
2189
2219
2265
2314
2359
2378
2381
2346
2302
2277
2288
2335
2353
2335
2310
2261
2220
2217
2241
2288
2320
2320
2303
2274
2255
2245
2263
2279
2291
2279
2209
2112
2011
1959
1986
2064
2154
2198
2178
2133
2089
2071
2079
2079
2081
2095
2076
2015
1975
1966
1985
2047
2115
2154
2190
2178
2141
2103
2086
2098
2126
2162
2160
2126
2076
2018
2000
2032
2076
2096
2094
2054
2021
2000
2001
2019
2062
2109
2155
2178
2160
2099
2047
2019
2031
2070
2110
2145
2155
2156
2165
2193
2218
2246
2243
2198
2103
2013
1952
1918
1887
1899
1925
1951
1947
1931
1935
1947
1973
2017
2068
2119
2141
2128
2109
2083
2054
2043
2061
2096
2119
2126
2106
2061
2021
2010
2067
2119
2169
2190
2170
2137
2097
2079
2082
2112
2128
2140
2125
2091
2046
2007
2011
2033
2064
2062
2064
2034
1984
1957
1987
2064
2137
2178
2163
2115
2058
2027
2043
2112
2197
2267
2305
2307
2251
2201
2182
2193
2226
2237
2247
2245
2225
2179
2153
2121
2096
2083
2061
2028
1987
1936
1930
1957
2015
2085
2145
2179
2189
2161
2118
2073
2053
2034
2033
2037
2059
2042
2013
2013
2045
2075
2073
2063
2043
2019
2029
2047
2070
2112
2181
2238
2254
2227
2183
2148
2131
2146
2160
2199
2239
2243
2195
2128
2082
2059
2063
2073
2093
2087
2087
2077
2075
2112
2163
2239
2325
2383
2373
2348
2302
2263
2262
2285
2315
2320
2279
2256
2237
2199
2192
2196
2219
2221
2160
2091
2039
1994
1979
1991
2036
2098
2099
2046
2023
2064
2132
2193
2229
2245
2245
2191
2103
1997
1947
1961
1990
2033
2055
2068
2055
2010
1961
1925
1926
1968
2011
2026
2016
2006
1959
1910
1927
1989
2047
2085
2096
2080
2057
2032
2023
2023
2019
2031
2026
2035
2041
2032
2029
2075
2125
2131
2115
2060
1984
1958
1955
1983
2025
2097
2139
2111
2053
1982
1936
1921
1935
1955
1989
2031
2027
1983
1918
1878
1904
1969
2022
2059
2043
2006
1968
1955
1955
1999
2039
2047
2032
2002
1983
1969
1990
2023
2053
2064
2034
1999
1959
1918
1889
1891
1915
1963
1981
1979
1942
1907
1887
1904
1962
2055
2118
2128
2097
2033
1983
1966
1991
2038
2113
2162
2142
2082
2027
2002
2007
2039
2081
2074
2039
2000
1965
1945
1977
2035
2112
2169
2176
2143
2083
2004
1965
1958
1983
2032
2075
2044
2000
1968
1946
1942
1975
2032
2114
2167
2192
2146
2086
2043
2023
2018
1998
1939
1910
1919
1982
2069
2160
2211
2209
2183
2114
2018
1931
1858
1861
1885
1923
1953
1952
1967
1969
1964
1969
1981
1998
2032
2031
2005
1986
1965
1955
1983
2047
2111
2137
2140
2098
2038
1989
2015
2096
2177
2251
2303
2298
2240
2191
2169
2170
2210
2265
2282
2249
2219
2200
2172
2131
2130
2155
2176
2192
2175
2131
2098
2087
2093
2091
2084
2093
2096
2064
2002
1979
1988
2041
2083
2064
2014
1984
1936
1904
1911
1936
1979
1991
1993
1969
1951
1949
1978
2022
2047
2032
2038
2007
1975
1959
1995
2027
2013
1994
1959
1922
1897
1868
1863
1894
1928
1926
1891
1862
1837
1807
1821
1862
1935
1973
1989
1981
1949
1926
1930
1935
1977
2015
2035
2036
2003
1952
1910
1904
1927
1987
2023
1993
1941
1862
1792
1769
1808
1894
1978
2021
2001
1946
1878
1830
1830
1872
1937
1961
1952
1889
1841
1844
1879
1937
2003
2039
2033
1974
1904
1848
1808
1799
1809
1830
1840
1840
1840
1838
1824
1845
1904
1986
2070
2096
2071
2004
1938
1917
1920
1943
1972
1965
1930
1861
1838
1853
1872
1902
1938
1989
2015
1987
1931
1895
1888
1919
1968
2015
2067
2085
2074
2047
2035
2023
2045
2112
2156
2145
2112
2065
2032
2027
2031
2032
2032
2005
1968
1919
1885
1891
1929
1965
1976
1965
1960
1938
1944
1960
1991
2035
2077
2095
2081
2043
1998
1938
1920
1927
1939
1935
1914
1872
1805
1776
1799
1872
1952
2009
2038
2027
1987
1955
1936
1920
1911
1925
1969
1996
1991
1983
1999
2029
2092
2155
2187
2171
2121
2047
2000
1988
2018
2071
2142
2197
2223
2207
2167
2138
2144
2164
2199
2240
2255
2235
2206
2155
2144
2176
2193
2211
2203
2144
2059
1994
1989
2032
2099
2138
2131
2091
2018
1959
1937
1947
1983
2023
2069
2059
2005
1958
1933
1955
2007
2058
2047
2032
2009
1970
1955
1956
1973
1994
2020
2003
1968
1915
1855
1810
1815
1867
1913
1949
1950
1943
1923
1900
1915
1961
2038
2083
2085
2047
1988
1943
1939
1958
2005
2047
2057
2009
1951
1905
1883
1889
1934
1959
1970
1948
1919
1886
1893
1954
2025
2094
2096
2038
1969
1915
1888
1889
1911
1933
1943
1949
1942
1936
1958
1973
1983
2018
2061
2069
2036
1984
1919
1897
1903
1920
1932
1931
1895
1843
1794
1803
1862
1959
2063
2127
2134
2117
2085
2047
2017
1999
2015
2045
2046
2031
1977
1905
1872
1871
1894
1924
1959
1973
1969
1966
1968
1985
2033
2090
2103
2085
2047
2009
1995
1999
2018
2030
2045
2047
2015
2000
2053
2127
2176
2183
2165
2131
2107
2111
2133
2160
2165
2160
2156
2147
2108
2032
1968
1934
1947
1999
2086
2143
2175
2148
2111
2057
1989
1967
1959
1983
1990
1937
1870
1822
1823
1856
1922
1989
2010
2014
1979
1924
1889
1893
1982
2093
2171
2179
2142
2084
2016
1984
1987
2007
2033
2064
2064
2054
2045
2032
2055
2075
2112
2161
2192
2190
2149
2114
2103
2133
2190
2243
2285
2299
2282
2237
2222
2254
2303
2327
2321
2281
2208
2135
2101
2137
2212
2299
2368
2394
2371
2316
2256
2222
2218
2237
2271
2283
2241
2179
2127
2100
2093
2103
2135
2143
2107
2025
1934
1880
1904
1972
2029
2083
2103
2095
2059
2000
1968
1959
1963
1994
2030
2032
2011
1986
1979
2002
2068
2121
2143
2128
2077
2001
1935
1907
1902
1935
1977
2000
1995
1978
1959
1968
1987
2023
2045
2064
2080
2082
2036
2027
2029
2082
2125
2141
2119
2064
1983
1935
1919
1913
1930
1968
1984
1959
1927
1904
1920
1970
2033
2058
2079
2065
2015
1961
1931
1962
2005
2069
2112
2111
2083
2037
1984
1939
1925
1936
1977
1986
1985
2000
2019
2033
2073
2099
2098
2091
2077
2038
2017
2011
2033
2064
2094
2094
2061
1989
1945
1940
1955
1983
2036
2100
2126
2086
2017
1969
1963
2019
2098
2157
2170
2145
2091
2032
1998
2017
2061
2101
2141
2159
2151
2126
2090
2061
2061
2063
2046
2023
1998
1995
1998
2032
2081
2125
2170
2203
2183
2141
2090
2021
2005
2032
2095
2142
2143
2112
2064
2031
2023
2055
2096
2123
2119
2111
2079
2033
2016
2041
2077
2112
2128
2106
2067
2064
2081
2107
2137
2181
2231
2243
2224
2186
2134
2110
2091
2111
2128
2149
2150
2123
2097
2096
2128
2161
2183
2171
2102
2019
2021
2070
2131
2203
2256
2288
2283
2256
2229
2195
2201
2256
2331
2385
2407
2401
2371
2353
2355
2378
2399
2403
2382
2345
2294
2253
2224
2253
2306
2367
2400
2375
2301
2243
2213
2208
2222
2240
2256
2256
2221
2169
2128
2127
2128
2151
2157
2143
2099
2059
2007
1973
1964
1999
2065
2115
2144
2146
2142
2128
2121
2126
2146
2161
2142
2116
2077
2022
2021
2043
2073
2098
2112
2096
2058
2032
2032
2067
2127
2175
2213
2204
2151
2071
1985
1961
1991
2055
2086
2070
2033
1989
1963
1955
1968
1987
2027
2041
2046
2015
1984
1971
2000
2066
2115
2154
2160
2145
2115
2062
2006
1984
1984
2012
2032
2043
2034
2017
2029
2077
2130
2163
2153
2105
2035
1989
1965
1961
1977
1986
1993
2006
2015
2003
1991
1970
1968
2013
2065
2095
2064
2013
2000
2011
2039
2085
2095
2096
2058
2011
1961
1940
1962
1998
2035
2065
2066
2073
2063
2034
2023
2034
2043
2033
2037
2055
2064
2095
2117
2147
2192
2211
2192
2105
1989
1898
1843
1867
1936
2020
2087
2123
2139
2137
2138
2137
2119
2102
2075
2032
1971
1936
1921
1931
1967
2015
2066
2113
2127
2102
2067
2032
2007
2035
2080
2071
2041
2006
1994
1975
1979
2002
2047
2087
2093
2074
2038
1997
1954
1942
1973
2033
2112
2135
2138
2129
2127
2132
2143
2160
2167
2149
2105
2064
2029
2012
2017
2032
2042
2047
2082
2079
2047
2035
2064
2100
2120
2133
2123
2100
2109
2119
2163
2239
2299
2351
2367
2335
2291
2242
2228
2251
2273
2279
2279
2251
2199
2155
2133
2147
2171
2185
2167
2145
2122
2096
2077
2090
2122
2128
2126
2087
2031
1970
1915
1901
1905
1955
2011
2044
2030
1981
1920
1855
1856
1929
2003
2070
2096
2057
1995
1964
1973
2007
2047
2083
2098
2081
2046
2010
1990
1997
2032
2078
2096
2070
2037
2006
1992
2001
2047
2103
2122
2083
1995
1904
1855
1875
1915
1967
2020
2034
2009
1968
1938
1965
2025
2095
2114
2102
2062
1997
1940
1904
1890
1903
1953
2032
2074
2065
2037
1996
1967
1951
1951
1978
1997
1987
1969
1952
1967
2000
2053
2089
2103
2059
1983
1917
1877
1869
1908
1955
2000
2037
2059
2054
2042
2015
2000
2015
2031
2026
2011
2003
2000
2006
2043
2076
2080
2064
2026
1968
1885
1856
1904
2000
2090
2131
2167
2159
2117
2087
2086
2086
2102
2124
2118
2080
2027
1969
1943
1970
2054
2145
2199
2207
2172
2130
2106
2112
2128
2181
2215
2194
2139
2089
2038
2017
2023
2035
2039
2011
1973
1939
1917
1904
1925
1983
2037
2091
2101
2066
2003
1955
1942
1994
2081
2142
2160
2154
2122
2101
2090
2091
2126
2155
2150
2127
2092
2078
2111
2147
2180
2205
2210
2194
2160
2107
2039
2013
2064
2131
2178
2174
2146
2114
2082
2064
2098
2160
2226
2274
2279
2259
2225
2234
2270
2336
2373
2389
2389
2370
2325
2298
2315
2358
2387
2390
2362
2288
2189
2114
2096
2130
2187
2219
2224
2197
2159
2133
2118
2133
2167
2197
2208
2194
2177
2147
2119
2124
2134
2124
2066
2018
2009
2005
2011
2023
2063
2111
2157
2177
2140
2078
2031
2013
2021
2053
2075
2074
2041
1991
1952
1936
1967
2015
2085
2121
2130
2115
2097
2059
2053
2069
2112
2138
2132
2118
2089
2075
2086
2093
2098
2101
2097
2066
2032
2045
2081
2135
2203
2227
2213
2158
2092
2013
1953
1909
1920
1979
2035
2085
2094
2078
2064
2071
2078
2090
2078
2063
2047
2011
1987
2001
2047
2111
2175
2211
2202
2167
2121
2095
2081
2066
2043
2039
2047
2046
2034
2030
2043
2067
2098
2117
2098
2038
1990
2004
2024
2055
2091
2128
2151
2125
2078
2017
1959
1934
1950
2007
2082
2128
2122
2078
2042
2087
2130
2154
2165
2159
2123
2066
2013
2000
2013
2045
2090
2133
2158
2141
2114
2115
2127
2153
2165
2150
2113
2079
2041
2029
2015
2023
2058
2082
2080
2035
1965
1879
1825
1857
1934
1987
2023
2027
2007
1985
1983
2000
2071
2133
2166
2149
2111
2044
2007
2012
2043
2083
2095
2083
2069
2039
2016
2026
2068
2115
2159
2185
2165
2114
2029
1955
1943
1986
2038
2095
2123
2107
2066
2032
2034
2064
2085
2112
2143
2150
2125
2079
2033
2034
2093
2123
2161
2192
2199
2176
2141
2125
2127
2139
2135
2101
2068
2045
2038
2086
2159
2226
2274
2275
2195
2091
2000
1970
1974
1989
2026
2030
1969
1881
1797
1727
1700
1718
1776
1841
1881
1891
1872
1840
1840
1867
1891
1914
1933
1914
1857
1810
1796
1823
1873
1933
1959
1951
1922
1904
1895
1889
1889
1890
1889
1879
1856
1840
1817
1808
1835
1856
1875
1872
1831
1797
1747
1742
1774
1840
1899
1917
1871
1803
1741
1715
1737
1776
1817
1831
1819
1814
1802
1789
1792
1821
1871
1911
1913
1878
1813
1765
1747
1783
1835
1867
1859
1827
1772
1720
1714
1739
1772
1808
1822
1820
1808
1791
1765
1771
1803
1842
1872
1857
1823
1790
1757
1734
1744
1798
1872
1934
1933
1866
1762
1677
1645
1668
1729
1788
1815
1819
1792
1755
1727
1717
1744
1783
1813
1822
1827
1808
1791
1804
1835
1872
1919
1957
1955
1915
1881
1863
1855
1874
1899
1925
1934
1904
1850
1805
1803
1834
1875
1904
1891
1853
1819
1802
1791
1787
1771
1755
1744
1723
1728
1743
1771
1795
1819
1826
1809
1781
1757
1732
1715
1729
1769
1820
1840
1838
1835
1827
1813
1831
1869
1901
1901
1882
1857
1812
1776
1781
1808
1839
1874
1875
1841
1802
1778
1782
1823
1901
1962
1981
1961
1904
1838
1791
1834
1926
2026
2095
2133
2141
2125
2111
2110
2103
2096
2091
2092
2065
2016
1979
1974
1994
2017
2018
2014
1984
1947
1916
1904
1920
1941
1939
1936
1922
1871
1801
1751
1749
1782
1843
1895
1915
1895
1853
1808
1783
1771
1779
1802
1811
1806
1765
1726
1687
1703
1753
1835
1894
1905
1879
1836
1813
1818
1837
1872
1898
1890
1875
1856
1811
1782
1775
1802
1843
1859
1819
1750
1694
1678
1696
1726
1776
1827
1849
1829
1797
1772
1761
1777
1794
1805
1794
1773
1744
1717
1706
1703
1734
1795
1841
1874
1873
1839
1808
1815
1862
1907
1923
1899
1858
1823
1806
1808
1848
1899
1914
1911
1878
1813
1778
1775
1802
1841
1887
1898
1873
1859
1856
1846
1861
1899
1941
1959
1938
1899
1835
1782
1771
1821
1878
1917
1919
1904
1859
1811
1799
1815
1873
1934
1965
1962
1935
1902
1891
1910
1957
2028
2082
2075
2031
1971
1915
1873
1869
1902
1941
1996
2033
2000
1962
1906
1884
1905
1945
1975
1982
1973
1967
1975
2000
2044
2078
2094
2071
2032
1975
1923
1881
1873
1898
1925
1937
1921
1906
1887
1887
1901
1949
1990
2002
1970
1922
1872
1856
1871
1904
1934
1969
1983
1966
1943
1943
1978
2020
2059
2064
2032
1968
1899
1853
1871
1910
1950
1989
2015
2029
2014
2002
2029
2096
2156
2201
2224
2187
2116
2070
2045
2067
2109
2161
2203
2211
2197
2166
2139
2130
2135
2151
2197
2250
2275
2288
2282
2263
2269
2278
2269
2214
2114
2001
1909
1872
1923
2030
2162
2259
2299
2266
2182
2090
2018
2002
2010
2012
2001
1975
1938
1897
1873
1885
1949
2015
2047
2035
1982
1909
1873
1860
1872
1886
1915
1953
1966
1950
1933
1922
1927
1963
1995
2006
1998
1987
1979
1977
1976
1981
1986
1995
1968
1922
1871
1833
1828
1869
1936
2000
2025
2013
1973
1937
1921
1936
1973
2021
2043
2022
1998
1965
1919
1879
1878
1892
1909
1920
1922
1923
1912
1915
1953
2015
2066
2074
2054
2006
1951
1922
1933
1968
1999
1994
1973
1937
1906
1898
1911
1929
1950
1961
1941
1918
1923
1936
1963
1996
2018
2015
1995
1967
1931
1909
1919
1959
1985
2015
2060
2062
2032
1997
1969
1966
1987
2025
2068
2077
2039
1984
1959
1959
1984
2020
2033
2021
2006
2017
2046
2086
2123
2164
2160
2111
1983
1863
1777
1744
1777
1836
1877
1914
1923
1911
1889
1871
1872
1894
1951
2015
2070
2071
2062
2047
2047
2091
2151
2214
2221
2183
2117
2023
1946
1918
1937
1967
1995
2029
2035
2000
1958
1950
1991
2077
2128
2126
2097
2032
1994
1983
2005
2055
2112
2149
2145
2107
2070
2043
2063
2099
2145
2177
2161
2117
2075
2034
2033
2063
2096
2123
2128
2112
2075
2032
2058
2135
2243
2347
2434
2472
2445
2383
2322
2297
2304
2333
2392
2423
2417
2370
2320
2289
2301
2338
2381
2384
2352
2293
2250
2241
2243
2272
2289
2288
2245
2191
2139
2096
2084
2109
2144
2175
2176
2141
2094
2021
1990
2030
2094
2111
2106
2089
2046
2007
2005
2037
2098
2166
2194
2179
2126
2069
2032
2044
2079
2102
2119
2129
2123
2097
2061
2042
2035
2041
2080
2077
2047
1990
1925
1898
1914
1975
2035
2075
2069
2032
1987
1984
2000
2023
2070
2105
2106
2073
2029
2005
2017
2083
2160
2224
2247
2224
2161
2091
2025
1985
1983
2029
2058
2059
2018
1984
1968
1989
2032
2063
2094
2095
2063
2026
2010
2007
2032
2079
2111
2117
2093
2045
2005
1995
2037
2115
2182
2210
2192
2144
2064
1984
1931
1901
1929
1982
2028
2066
2096
2097
2098
2113
2151
2175
2170
2128
2075
2023
2018
2010
2011
2010
2012
2027
2039
2045
2045
2071
2125
2174
2175
2157
2085
1994
1959
1973
2031
2106
2155
2182
2177
2147
2128
2139
2151
2172
2181
2160
2119
2063
2010
1997
2038
2097
2158
2192
2192
2163
2127
2114
2125
2149
2175
2190
2160
2096
2015
1954
1935
1968
2023
2080
2124
2129
2120
2112
2125
2167
2192
2219
2246
2243
2221
2193
2165
2158
2171
2206
2238
2233
2192
2144
2103
2103
2137
2177
2206
2235
2225
2203
2186
2173
2182
2211
2245
2291
2327
2329
2320
2304
2314
2352
2384
2407
2403
2389
2368
2343
2334
2345
2381
2430
2438
2416
2371
2331
2298
2292
2313
2331
2329
2295
2233
2164
2105
2097
2138
2191
2231
2238
2206
2160
2117
2097
2085
2087
2085
2077
2047
2046
2071
2087
2110
2133
2176
2187
2161
2113
2046
1984
1978
2013
2064
2107
2129
2126
2100
2046
2015
2019
2053
2069
2080
2068
2041
2002
1970
1969
2003
2058
2098
2112
2107
2095
2090
2086
2101
2127
2153
2164
2133
2071
1999
1958
1957
1985
2030
2064
2061
2039
2001
1987
2004
2035
2067
2096
2096
2064
2021
1999
1999
2032
2078
2099
2103
2077
2039
2013
1991
2003
2064
2113
2143
2140
2098
2045
2002
1989
1993
2030
2062
2090
2107
2091
2047
2042
2061
2110
2148
2151
2105
2006
1924
1885
1906
1987
2064
2123
2130
2114
2098
2092
2086
2087
2097
2125
2128
2115
2095
2066
2062
2059
2072
2089
2095
2079
2041
2014
2013
2038
2095
2134
2165
2157
2107
2045
2000
1977
1995
2033
2096
2131
2143
2112
2096
2098
2140
2192
2223
2224
2199
2160
2089
2025
1997
2017
2069
2096
2109
2095
2039
2003
2027
2081
2138
2160
2141
2097
2010
1929
1893
1904
1946
2013
2071
2099
2075
2021
1979
1961
1986
2037
2096
2121
2114
2099
2085
2112
2151
2197
2222
2190
2143
2087
2045
2059
2081
2112
2165
2214
2240
2240
2231
2207
2195
2173
2151
2161
2178
2176
2154
2142
2153
2192
2240
2265
2231
2170
2102
2077
2101
2123
2128
2105
2067
2015
1979
1955
1952
1981
2017
2032
2027
2019
2010
1999
1982
1973
1963
1963
1939
1872
1775
1693
1651
1655
1679
1744
1835
1907
1946
1965
1942
1933
1936
1963
1969
1977
1943
1905
1874
1859
1873
1898
1911
1935
1936
1909
1854
1808
1787
1808
1859
1894
1922
1904
1863
1821
1805
1840
1895
1946
1968
1933
1883
1856
1838
1813
1799
1802
1815
1818
1793
1765
1743
1738
1758
1797
1825
1840
1815
1777
1755
1745
1776
1840
1893
1919
1911
1861
1805
1761
1756
1791
1827
1841
1825
1797
1755
1725
1726
1777
1859
1891
1869
1807
1737
1682
1660
1667
1707
1775
1822
1823
1808
1773
1751
1772
1813
1844
1831
1776
1721
1659
1629
1637
1699
1811
1933
1983
1962
1876
1785
1713
1701
1727
1779
1841
1863
1857
1839
1791
1750
1763
1825
1903
1958
2000
1993
1936
1865
1815
1797
1798
1792
1759
1707
1662
1633
1646
1685
1744
1762
1748
1712
1680
1678
1695
1719
1746
1787
1798
1783
1785
1767
1756
1745
1750
1761
1747
1740
1728
1734
1745
1761
1786
1806
1823
1799
1755
1723
1711
1728
1776
1845
1901
1906
1890
1841
1789
1748
1759
1811
1871
1901
1892
1855
1798
1759
1771
1813
1877
1963
2015
2007
2000
1984
1974
1986
2002
2000
1978
1920
1860
1819
1791
1792
1834
1890
1922
1905
1877
1839
1826
1841
1856
1853
1840
1808
1776
1733
1711
1723
1757
1777
1781
1776
1759
1723
1693
1686
1700
1729
1737
1727
1719
1689
1677
1676
1682
1710
1755
1791
1827
1834
1785
1715
1671
1669
1716
1770
1798
1777
1734
1683
1684
1727
1790
1830
1826
1790
1746
1690
1669
1685
1728
1784
1831
1834
1795
1743
1713
1728
1763
1806
1828
1824
1782
1726
1687
1715
1776
1848
1909
1935
1923
1898
1872
1843
1831
1819
1798
1782
1767
1730
1664
1643
1670
1723
1791
1825
1829
1809
1773
1735
1728
1749
1791
1840
1851
1842
1814
1799
1800
1794
1793
1831
1863
1871
1849
1819
1805
1815
1853
1906
1945
1932
1885
1835
1772
1733
1733
1770
1812
1847
1875
1904
1907
1906
1892
1879
1869
1851
1829
1814
1827
1839
1863
1913
1954
2000
2035
2042
2020
2001
2000
2014
2047
2075
2057
2000
1927
1853
1803
1778
1803
1847
1897
1923
1915
1851
1828
1835
1872
1920
1963
1974
1952
1925
1890
1872
1883
1883
1874
1870
1852
1821
1813
1815
1871
1929
1982
2026
2038
2032
2021
2002
2011
2038
2095
2121
2101
2059
1997
1967
1968
1975
2025
2075
2086
2080
2047
2025
2005
2020
2059
2094
2133
2143
2112
2075
2055
2086
2146
2211
2254
2251
2210
2149
2081
2053
2085
2123
2175
2219
2225
2199
2181
2161
2155
2160
2176
2178
2148
2097
2027
1985
2001
2037
2096
2118
2096
2031
1957
1913
1907
1956
2032
2096
2107
2062
2009
1956
1921
1933
1950
1949
1935
1913
1913
1922
1921
1962
2030
2101
2121
2133
2121
2066
2002
1971
1982
2014
2069
2115
2105
2081
2031
1999
2011
2059
2116
2153
2145
2118
2079
2038
2032
2027
2059
2086
2064
2029
1990
1963
1975
2007
2058
2099
2145
2128
2083
2034
2000
1986
2015
2075
2107
2108
2074
2017
1995
2001
2055
2112
2145
2144
2121
2081
2047
2037
2029
2032
2047
2060
2055
2053
2040
2047
2066
2103
2109
2114
2115
2096
2077
2067
2099
2155
2223
2263
2246
2189
2111
2047
2021
2029
2079
2112
2128
2114
2084
2071
2078
2113
2163
2204
2220
2209
2160
2107
2087
2107
2138
2187
2240
2247
2223
2189
2162
2169
2208
2261
2288
2286
2266
2247
2219
2186
2181
2199
2221
2242
2237
2191
2119
2055
2015
2022
2057
2070
2061
2039
2029
2020
2022
2059
2110
2167
2229
2234
2194
2132
2105
2106
2128
2161
2191
2203
2203
2171
2137
2131
2160
2216
2256
2253
2227
2185
2169
2167
2194
2245
2288
2304
2278
2237
2191
2161
2183
2218
2259
2288
2275
2240
2219
2223
2259
2320
2387
2438
2458
2463
2443
2406
2384
2395
2416
2437
2415
2384
2362
2352
2349
2350
2351
2367
2384
2379
2341
2295
2255
2251
2262
2284
2274
2236
2181
2145
2122
2112
2115
2154
2195
2221
2177
2128
2061
2006
2007
2060
2079
2098
2099
2099
2099
2086
2064
2066
2080
2099
2114
2133
2148
2147
2160
2183
2206
2210
2192
2160
2125
2077
2032
2033
2087
2150
2192
2192
2151
2075
2006
1983
2013
2081
2151
2176
2160
2126
2095
2089
2107
2135
2174
2193
2176
2128
2082
2064
2078
2114
2166
2206
2211
2177
2148
2111
2079
2071
2114
2154
2176
2176
2153
2121
2097
2086
2087
2101
2112
2087
2037
1979
1964
1967
2002
2047
2086
2118
2139
2119
2085
2081
2096
2138
2173
2206
2179
2124
2078
2055
2064
2104
2163
2181
2173
2143
2141
2128
2112
2149
2160
2169
2150
2115
2097
2102
2127
2148
2160
2175
2161
2112
2032
1968
1974
2070
2191
2278
2298
2257
2201
2138
2096
2090
2106
2141
2179
2201
2224
2229
2185
2154
2160
2193
2231
2238
2203
2161
2124
2103
2128
2156
2171
2166
2134
2110
2074
2064
2099
2151
2202
2226
2212
2175
2121
2071
2038
2032
2038
2058
2059
2046
2030
2032
2080
2127
2161
2208
2242
2254
2226
2181
2162
2175
2214
2258
2283
2275
2239
2186
2146
2137
2166
2230
2270
2288
2295
2281
2261
2273
2320
2375
2404
2410
2402
2367
2334
2303
2307
2320
2362
2385
2402
2357
2288
2230
2198
2199
2240
2266
2270
2270
2241
2205
2181
2176
2195
2231
2257
2249
2211
2154
2094
2055
2064
2098
2117
2118
2103
2078
2062
2047
2054
2070
2090
2101
2096
2082
2055
2029
2039
2081
2118
2142
2128
2096
2042
2028
2038
2086
2129
2144
2113
2085
2064
2039
2059
2096
2132
2163
2159
2106
2034
1978
1947
1947
1985
2046
2094
2107
2086
2045
2009
2001
2030
2091
2151
2171
2130
2064
2023
2011
2032
2069
2093
2112
2110
2079
2043
2017
2032
2064
2082
2079
2028
1965
1934
1968
2043
2143
2202
2199
2154
2089
2031
1991
1977
2000
2047
2096
2115
2102
2064
2020
1994
2009
2064
2128
2159
2135
2111
2058
1999
1971
1973
2007
2039
2047
2030
1991
1961
1951
1963
2001
2063
2096
2077
2026
1966
1945
1993
2069
2139
2197
2207
2182
2135
2096
2076
2087
2126
2172
2208
2230
2251
2245
2224
2215
2211
2219
2219
2199
2146
2081
2062
2090
2133
2173
2194
2187
2159
2109
2062
2023
2010
2009
2018
1997
1950
1899
1880
1899
1927
1984
2039
2075
2063
2029
2002
1998
2015
2047
2082
2112
2122
2112
2093
2063
2059
2082
2129
2172
2179
2169
2149
2128
2113
2096
2073
2061
2045
2055
2057
2068
2085
2107
2147
2189
2213
2210
2198
2165
2147
2164
2218
2267
2291
2288
2273
2239
2221
2227
2259
2307
2357
2388
2379
2341
2290
2241
2224
2249
2303
2349
2350
2319
2282
2246
2227
2228
2251
2260
2246
2219
2167
2159
2164
2154
2150
2149
2149
2146
2128
2098
2047
2033
2061
2091
2093
2065
2011
1947
1904
1904
1929
1986
2034
2073
2071
2055
2021
2009
2023
2062
2093
2086
2031
1954
1891
1882
1937
2020
2112
2165
2176
2176
2156
2127
2097
2107
2129
2138
2126
2089
2019
1975
1943
1958
2003
2057
2073
2064
2017
1985
1959
1947
1950
1962
1963
1962
1951
1920
1898
1917
1953
2000
2058
2096
2091
2044
1987
1962
1985
2027
2076
2115
2114
2065
2005
1991
2006
2047
2096
2127
2128
2096
2047
2009
2006
2053
2096
2118
2113
2096
2067
2010
1968
1951
1969
1982
1990
2000
1974
1938
1917
1919
1973
2043
2098
2101
2055
1998
1959
1973
2021
2074
2117
2122
2097
2042
1991
1968
1970
1990
2007
2014
2013
1990
1968
1995
2083
2160
2215
2256
2245
2206
2199
2217
2247
2288
2320
2327
2288
2220
2163
2126
2112
2138
2185
2213
2205
2159
2096
2021
1978
1981
2013
2055
2055
2027
1989
1936
1906
1911
1944
1981
2022
2034
2043
2067
2081
2091
2132
2133
2135
2114
2057
1971
1898
1861
1883
1946
2018
2067
2090
2091
2077
2062
2059
2069
2107
2133
2131
2102
2034
1990
1991
2000
2018
2047
2094
2112
2112
2099
2103
2109
2129
2176
2217
2231
2234
2246
2270
2302
2331
2384
2429
2438
2416
2387
2352
2343
2337
2339
2349
2336
2320
2288
2243
2222
2227
2241
2256
2253
2234
2215
2174
2145
2138
2156
2191
2219
2186
2111
2047
2010
2007
2030
2039
2043
2046
2032
1990
1941
1934
1950
1998
2074
2125
2111
2053
1993
1931
1920
1939
1986
2032
2043
2015
1979
1958
1936
1946
1989
2047
2075
2032
1968
1920
1891
1904
1916
1936
1953
1931
1902
1887
1878
1903
1954
2011
2064
2080
2074
2054
2010
1991
1971
2000
2041
2055
2023
1981
1936
1918
1943
1982
2009
2025
2007
1969
1934
1904
1887
1903
1935
1952
1962
1939
1904
1880
1870
1879
1927
1971
1985
1968
1943
1904
1904
1925
1953
2002
2063
2079
2047
2000
1947
1936
1936
1954
2000
2033
2053
2039
2015
1978
1964
1970
1998
2026
2000
1940
1897
1888
1948
2032
2103
2128
2101
2039
1950
1882
1866
1903
1941
1991
2025
2026
2001
1968
1939
1936
1930
1927
1967
1983
1999
2043
2083
2110
2139
2151
2125
2065
1982
1905
1874
1899
1953
2001
2037
2058
2059
2056
2029
2021
2044
2062
2067
2032
1997
1961
1932
1930
1963
2013
2079
2112
2090
2043
2004
1984
1997
2032
2068
2085
2071
2012
1956
1948
1955
1982
2018
2057
2079
2070
2035
1993
1961
1945
1983
2026
2063
2041
2015
1990
1963
1955
1981
2027
2061
2082
2109
2073
2034
2023
2003
2006
2054
2087
2114
2139
2150
2158
2170
2195
2240
2261
2271
2259
2235
2224
2235
2255
2295
2343
2367
2358
2325
2263
2244
2242
2256
2268
2273
2256
2209
2149
2118
2122
2161
2192
2207
2193
2164
2138
2103
2094
2095
2101
2112
2096
2059
2001
1989
2000
2019
2079
2144
2179
2151
2093
2022
1971
1941
1957
1995
2034
2059
2031
1999
1967
1947
1943
1961
1974
1969
1936
1904
1879
1889
1934
1988
2032
2064
2061
2017
1984
1967
1967
1985
2011
2017
2007
1980
1930
1905
1918
1951
1995
2032
2041
2019
1975
1940
1935
1950
1995
2033
2081
2087
2060
1996
1968
1967
1990
2029
2060
2017
1958
1909
1881
1886
1905
1925
1953
1989
2007
1991
1968
1953
1946
1985
2068
2112
2107
2065
2014
1974
1959
1968
2000
2015
2000
1968
1935
1916
1919
1923
1942
1961
1974
1997
2000
2013
2042
2064
2082
2070
2029
1973
1929
1884
1870
1902
1950
2003
2058
2058
2016
1968
1927
1917
1936
1970
2001
2000
1987
1973
1967
1981
2021
2086
2128
2134
2097
2014
1912
1840
1835
1902
2001
2095
2102
2083
2037
2012
1987
1981
1983
1994
2002
2000
1990
1984
1995
2035
2091
2139
2161
2161
2128
2075
2017
1995
2014
2031
2063
2057
2017
1961
1936
1941
1974
2000
1998
1974
1950
1922
1923
1945
2005
2075
2113
2133
2126
2096
2026
1986
1997
2023
2066
2103
2103
2094
2064
2042
2062
2099
2136
2159
2149
2131
2111
2075
2061
2078
2117
2150
2164
2166
2154
2131
2112
2123
2151
2203
2243
2242
2217
2176
2142
2145
2185
2235
2288
2320
2298
2237
2162
2141
2160
2192
2245
2257
2235
2190
2123
2061
2042
2063
2107
2141
2142
2107
2037
1994
1984
2015
2063
2103
2110
2098
2058
1991
1943
1915
1904
1949
2000
2001
1968
1923
1899
1905
1930
1954
1970
1970
1942
1904
1885
1876
1890
1935
1983
1994
1977
1949
1920
1915
1936
1971
1999
2005
2011
1985
1968
1962
1971
1985
1980
1955
1919
1891
1872
1870
1892
1915
1941
1957
1975
1991
1987
1973
1957
1956
1975
1995
2000
1973
1939
1919
1906
1926
1968
2014
2018
1973
1929
1898
1871
1891
1937
2000
2033
2026
1998
1939
1905
1891
1919
1979
2032
2057
2027
1975
1921
1899
1905
1925
1950
1968
1970
1943
1905
1889
1905
1939
2000
2055
2057
2027
1984
1955
1935
1935
1955
1971
1963
1959
1963
1947
1934
1951
1985
2026
2063
2094
2090
2064
2023
2015
2037
2046
2060
2035
2000
1971
1983
1991
2010
2061
2112
2146
2142
2096
2010
1939
1929
1971
2035
2083
2096
2085
2061
2018
2001
2005
2042
2078
2081
2033
1967
1914
1908
1926
1962
2007
2035
2029
1983
1929
1899
1908
1933
1962
1985
1987
1970
1940
1923
1948
1984
2017
2063
2082
2087
2064
2032
2017
2032
2079
2127
2158
2148
2096
2033
1995
1984
2015
2055
2109
2161
2147
2077
2006
1992
2031
2096
2149
2180
2177
2160
2138
2128
2138
2177
2227
2277
2300
2259
2209
2177
2175
2181
2192
2208
2175
2132
2097
2079
2067
2095
2152
2208
2209
2161
2085
2009
1971
1951
1963
2005
2035
2055
2044
2031
2026
2028
2064
2103
2118
2076
2003
1947
1911
1922
1954
1969
1974
1969
1949
1910
1875
1860
1854
1903
1966
1995
1983
1961
1947
1939
1943
1959
1991
2011
1997
1954
1904
1867
1869
1889
1926
1958
1984
1979
1965
1949
1949
1975
2039
2107
2145
2123
2073
2003
1946
1900
1872
1874
1905
1949
1975
1990
1966
1938
1945
1968
1973
1967
1936
1897
1859
1838
1834
1855
1882
1890
1889
1867
1823
1813
1855
1927
1984
2019
2016
1975
1917
1875
1859
1863
1878
1916
1944
1967
1968
1957
1961
1970
1983
1994
1999
1968
1898
1835
1799
1808
1851
1906
1936
1935
1918
1886
1844
1819
1823
1861
1915
1936
1915
1856
1833
1862
1903
1955
1998
1990
1955
1921
1904
1926
1994
2066
2115
2132
2102
2058
2001
1951
1927
1923
1947
1959
1963
1955
1936
1913
1905
1914
1936
1968
2003
2015
1986
1937
1895
1886
1878
1887
1875
1856
1814
1762
1728
1711
1732
1777
1823
1852
1855
1827
1794
1779
1803
1873
1946
1985
1968
1915
1866
1818
1797
1831
1898
1953
1979
1972
1936
1920
1910
1917
1940
1967
1969
1943
1923
1901
1903
1934
1975
2025
2070
2081
2057
2015
1989
1984
2019
2067
2109
2120
2101
2047
1999
1966
1967
1987
2025
2032
2019
1966
1917
1885
1872
1915
1953
1981
1967
1927
1875
1838
1818
1840
1893
1938
1968
1957
1925
1900
1871
1866
1883
1900
1890
1873
1837
1801
1774
1792
1843
1913
1937
1927
1871
1823
1791
1768
1763
1791
1830
1847
1840
1808
1796
1798
1827
1872
1895
1890
1862
1814
1769
1744
1758
1801
1850
1872
1869
1856
1846
1851
1860
1872
1915
1953
1944
1894
1824
1777
1776
1808
1860
1925
1932
1898
1839
1761
1712
1700
1709
1750
1817
1851
1874
1867
1855
1853
1895
1950
1981
1971
1925
1863
1810
1787
1792
1825
1839
1855
1839
1808
1770
1744
1754
1801
1847
1887
1889
1866
1823
1789
1771
1774
1786
1831
1863
1856
1822
1793
1799
1835
1878
1917
1921
1904
1883
1856
1838
1837
1843
1869
1883
1871
1845
1826
1831
1851
1885
1921
1946
1936
1901
1847
1804
1799
1870
1959
2032
2054
2025
1981
1920
1893
1899
1930
1953
1967
1944
1904
1869
1840
1839
1842
1848
1844
1838
1809
1790
1781
1797
1838
1870
1908
1927
1922
1891
1855
1839
1844
1858
1877
1890
1895
1875
1840
1811
1807
1835
1882
1917
1907
1873
1833
1808
1805
1815
1857
1896
1904
1897
1868
1857
1879
1915
1939
1975
2011
2029
2005
1955
1904
1893
1932
1983
2026
2062
2045
2018
1983
1983
2000
2045
2067
2071
2070
2074
2062
2033
2047
2078
2106
2110
2074
2018
1965
1947
1959
1971
1997
2006
2003
1989
1968
1949
1959
1984
2027
2034
2009
1961
1891
1853
1819
1840
1874
1905
1920
1891
1852
1805
1771
1783
1819
1882
1943
1983
1977
1945
1904
1883
1893
1907
1914
1895
1851
1821
1811
1791
1805
1822
1873
1903
1901
1894
1891
1874
1874
1883
1915
1944
1949
1900
1838
1799
1807
1855
1911
1951
1966
1936
1891
1861
1840
1840
1870
1905
1936
1949
1931
1889
1834
1810
1829
1872
1894
1884
1872
1859
1842
1863
1896
1939
1968
1984
1968
1931
1909
1878
1881
1904
1925
1939
1935
1910
1872
1847
1839
1847
1905
1975
2018
2032
2003
1985
1955
1936
1943
1975
1982
1955
1902
1843
1814
1810
1847
1901
1936
1942
1919
1865
1828
1808
1825
1872
1926
1947
1950
1934
1917
1936
1995
2071
2143
2179
2160
2069
1979
1930
1920
1972
2055
2127
2169
2161
2133
2097
2087
2073
2060
2041
2017
1977
1934
1919
1914
1920
1970
2032
2047
2034
2010
1995
1975
1973
2001
2019
2023
1996
1955
1902
1873
1887
1910
1929
1968
1985
1968
1933
1898
1904
1930
1968
2006
2031
2029
1994
1959
1942
1937
1951
1968
1971
1953
1906
1917
1951
1987
2032
2094
2121
2110
2066
2010
1969
1953
1971
2017
2057
2086
2081
2035
2001
1983
1994
2038
2125
2196
2224
2240
2244
2256
2256
2247
2240
2246
2231
2195
2141
2093
2083
2106
2146
2182
2188
2176
2162
2122
2097
2122
2136
2146
2128
2093
2033
1975
1917
1904
1949
2013
2055
2064
2034
1991
1936
1911
1904
1931
1968
2000
2001
1981
1950
1935
1947
1977
2000
2032
2032
2023
2000
1983
1987
2023
2081
2096
2064
1989
1919
1859
1845
1872
1936
2000
2047
2039
2009
1980
1954
1971
2015
2057
2075
2059
2019
1943
1885
1872
1918
1984
2042
2066
2059
2013
1967
1948
1952
1979
2015
2053
2055
2009
1969
1933
1937
1965
2005
2039
2035
1995
1926
1881
1875
1924
2014
2119
2182
2215
2176
2099
2031
2007
2018
2057
2064
2028
1967
1918
1911
1924
1961
2001
2032
2023
1987
1935
1891
1910
1959
2003
2032
2034
2007
1979
1974
1968
1978
1989
2004
2007
1997
1983
1967
1978
2013
2047
2075
2061
2000
1955
1938
1970
2032
2127
2201
2254
2269
2224
2144
2065
2011
1999
2032
2111
2193
2258
2265
2224
2162
2127
2119
2144
2158
2143
2097
2028
1975
1969
2015
2064
2115
2131
2111
2070
2034
2029
2042
2070
2096
2091
2042
1991
1971
1990
2026
2075
2110
2139
2129
2095
2035
1983
1969
1987
2021
2058
2061
2027
1978
1909
1872
1889
1936
1996
2030
2047
2046
2033
2032
2058
2096
2132
2178
2181
2159
2127
2100
2109
2130
2161
2176
2185
2186
2192
2197
2215
2239
2262
2286
2302
2271
2225
2179
2143
2154
2199
2270
2325
2332
2293
2251
2182
2137
2145
2179
2219
2256
2277
2282
2256
2234
2225
2229
2224
2192
2148
2098
2032
1988
1993
2038
2101
2123
2107
2047
1971
1927
1926
1968
2002
2054
2092
2096
2061
2017
1995
1983
1984
1999
2002
2015
2017
1984
1936
1933
1951
1984
1999
1990
1968
1930
1920
1952
2019
2091
2113
2113
2087
2032
1986
1968
1967
1994
2021
2035
2018
1984
1954
1945
1953
1983
2015
2047
2045
2017
1985
1968
1969
2010
2064
2104
2112
2069
2001
1958
1943
1951
1968
2001
2014
2003
1955
1891
1856
1861
1889
1936
1985
2030
2047
2032
2014
2007
2031
2077
2113
2124
2090
2003
1924
1886
1902
1937
1989
2025
2033
2021
1971
1951
1973
2031
2096
2131
2127
2094
2023
1959
1941
1948
1983
2035
2054
2027
1982
1952
1941
1968
2028
2079
2095
2076
2021
1968
1938
1935
1967
2003
2064
2097
2122
2122
2121
2114
2112
2122
2151
2162
2156
2127
2128
2147
2151
2176
2183
2179
2151
2095
2028
1966
1953
2021
2123
2196
2198
2154
2095
2041
2018
2007
2032
2058
2065
2032
1975
1946
1941
1969
2001
2047
2081
2096
2081
2064
2039
2055
2093
2141
2170
2148
2096
2031
1975
1938
1952
2000
2081
2112
2113
2095
2075
2066
2096
2135
2176
2192
2176
2126
2061
1991
1978
2005
2085
2173
2211
2189
2142
2096
2095
2164
2265
2352
2389
2389
2352
2317
2290
2285
2315
2359
2379
2357
2336
2303
2275
2279
2299
2341
2375
2383
2340
2270
2211
2177
2167
2175
2208
2260
2275
2241
2192
2157
2154
2169
2189
2192
2148
2080
2018
1980
1986
2030
2099
2155
2155
2123
2077
2029
2013
2021
2064
2089
2109
2097
2062
2000
1957
1939
1959
2032
2091
2096
2091
2065
2056
2067
2093
2117
2139
2115
2065
1997
1930
1904
1925
1971
2017
2047
2064
2057
2029
2015
2035
2066
2107
2133
2128
2096
2043
2020
2025
2053
2073
2079
2074
2059
2027
1994
1987
2012
2047
2081
2093
2061
2000
1957
1936
1935
1971
2014
2046
2038
2014
1980
1946
1946
1973
2030
2098
2131
2127
2116
2096
2081
2082
2087
2095
2090
2069
2031
1979
1955
1991
2068
2138
2154
2131
2099
2067
2025
2005
2011
2039
2056
2032
2001
1979
1962
1953
1983
2017
2067
2086
2066
2044
2032
2039
2073
2109
2143
2159
2127
2074
2023
2000
2021
2069
2127
2185
2203
2179
2128
2069
2054
2086
2164
2263
2349
2342
2256
2133
2047
2039
2057
2097
2122
2103
2069
2032
2003
1984
1986
2031
2074
2083
2059
2007
1978
1968
1987
2023
2047
2075
2058
2013
2000
1991
2018
2078
2128
2174
2157
2112
2058
2007
2004
2023
2045
2077
2089
2066
2035
2018
1993
1991
2017
2064
2083
2070
2042
2000
1974
1963
1986
2015
2059
2101
2107
2096
2084
2096
2145
2203
2244
2247
2219
2165
2138
2149
2192
2240
2288
2313
2287
2240
2192
2173
2192
2247
2299
2327
2311
2256
2176
2119
2113
2138
2180
2201
2179
2140
2094
2030
1995
2022
2067
2101
2121
2115
2075
2003
1955
1943
1952
1978
2017
2047
2059
2027
1988
1966
1947
1958
1980
1981
1965
1936
1904
1889
1910
1957
2007
2047
2039
1991
1923
1872
1874
1911
1942
1933
1870
1807
1775
1759
1767
1806
1883
1954
1983
1964
1917
1869
1846
1851
1872
1910
1927
1929
1904
1882
1886
1907
1918
1936
1947
1939
1914
1874
1856
1862
1871
1902
1933
1951
1933
1889
1850
1835
1851
1863
1879
1887
1872
1827
1769
1725
1738
1776
1808
1849
1872
1859
1812
1785
1765
1763
1793
1843
1872
1872
1849
1827
1819
1839
1855
1897
1917
1901
1863
1825
1818
1833
1869
1915
1963
1955
1911
1851
1823
1815
1840
1871
1876
1867
1830
1758
1720
1738
1792
1876
1930
1946
1923
1865
1792
1755
1744
1748
1758
1767
1761
1757
1759
1761
1817
1902
1974
2003
1973
1923
1872
1850
1847
1845
1890
1953
1993
1984
1936
1889
1845
1844
1873
1921
1953
1926
1872
1810
1765
1761
1808
1884
1943
1968
1939
1867
1781
1726
1712
1729
1780
1828
1844
1819
1763
1744
1757
1774
1797
1829
1825
1808
1775
1737
1744
1788
1851
1903
1921
1917
1895
1860
1840
1817
1847
1904
1931
1918
1915
1895
1887
1917
1954
1984
1999
1995
1959
1919
1886
1889
1919
1957
2007
2032
2034
2021
2007
1999
1991
2011
2029
2017
2004
1989
1984
1970
1991
2011
2043
2064
2039
2000
1957
1910
1909
1950
2014
2037
2033
2000
1949
1903
1872
1853
1855
1878
1891
1883
1863
1840
1840
1879
1925
1956
1972
1952
1899
1835
1776
1739
1723
1742
1779
1803
1810
1795
1778
1771
1795
1837
1857
1866
1838
1817
1783
1763
1760
1774
1796
1803
1789
1783
1762
1751
1772
1802
1859
1902
1894
1857
1831
1808
1808
1819
1853
1890
1911
1890
1857
1833
1831
1850
1868
1891
1910
1906
1905
1875
1825
1779
1793
1830
1855
1840
1795
1759
1750
1774
1809
1859
1906
1939
1923
1872
1823
1774
1762
1799
1854
1905
1932
1924
1895
1860
1843
1840
1846
1868
1875
1859
1840
1811
1809
1840
1901
1953
1986
1987
1952
1884
1793
1763
1776
1808
1834
1840
1835
1827
1808
1838
1879
1936
1969
1970
1931
1862
1808
1779
1776
1805
1856
1901
1937
1958
1974
1963
1974
2005
2036
2047
2037
1979
1911
1855
1840
1874
1951
2009
2027
2000
1962
1912
1871
1873
1905
1968
2033
2074
2042
1981
1927
1907
1906
1911
1954
1981
1940
1877
1831
1807
1829
1874
1936
1977
1970
1940
1904
1894
1909
1949
1984
2010
2000
1968
1936
1886
1860
1867
1891
1918
1938
1963
1967
1962
1973
1998
2010
2007
2019
1998
1938
1909
1905
1920
1965
2006
2043
2046
2015
1973
1936
1944
1970
2000
2017
2015
2003
2000
1989
2010
2047
2078
2086
2093
2101
2094
2074
2064
2077
2110
2128
2155
2157
2138
2096
2047
2021
2015
2038
2068
2084
2066
2023
2006
1998
2000
2002
2022
2037
2032
2008
1969
1943
1936
1961
1981
1968
1917
1869
1834
1817
1824
1865
1936
1979
1990
1968
1915
1862
1862
1879
1919
1962
1973
1968
1952
1931
1933
1978
2032
2063
2067
2029
1980
1947
1935
1943
1968
2009
2035
2053
2060
2037
2014
2007
2015
2047
2077
2075
2046
2000
1963
1939
1943
1979
2020
2064
2044
1991
1931
1891
1911
1969
2047
2099
2112
2070
2000
1951
1933
1954
2013
2045
2064
2075
2061
2026
2013
2022
2080
2113
2110
2077
2041
2019
2010
2009
2015
2039
2072
2071
2026
1981
1966
1999
2044
2081
2097
2071
2035
2029
2023
2000
2019
2073
2111
2119
2112
2074
2019
1973
1971
2002
2061
2121
2149
2147
2115
2081
2047
1999
1971
1965
1993
2033
2071
2105
2128
2159
2192
2226
2236
2211
2192
2187
2192
2220
2243
2271
2283
2257
2238
2195
2160
2150
2143
2143
2143
2119
2095
2061
2047
2041
2054
2096
2145
2174
2159
2099
2021
1978
1958
1995
2064
2122
2132
2119
2096
2054
2047
2069
2109
2167
2193
2192
2155
2107
2064
2033
2015
2002
2020
2064
2107
2142
2145
2143
2139
2147
2153
2149
2121
2082
2038
2014
2019
2056
2116
2166
2195
2206
2189
2156
2151
2176
2206
2222
2208
2192
2163
2155
2178
2228
2283
2320
2338
2337
2311
2267
2231
2214
2207
2197
2206
2197
2192
2173
2165
2179
2226
2258
2277
2242
2162
2103
2069
2059
2078
2113
2167
2187
2161
2115
2096
2099
2125
2149
2167
2172
2160
2117
2094
2055
2035
2032
2039
2034
2030
2013
1993
1975
1962
1959
2023
2090
2108
2100
2068
2032
2019
2032
2078
2112
2139
2119
2083
2033
2001
1984
2019
2083
2151
2170
2150
2123
2087
2081
2089
2093
2091
2063
2027
2000
1985
1980
1968
2006
2027
2033
2032
2054
2075
2093
2119
2160
2193
2194
2169
2103
2001
1915
1905
1955
2033
2106
2144
2167
2158
2105
2064
2039
2034
2034
2055
2060
2025
1987
1954
1961
1997
2035
2085
2093
2081
2043
1999
1989
2009
2028
2033
2015
1965
1918
1905
1919
1974
2055
2107
2117
2082
2018
1973
1957
1984
2017
2064
2103
2109
2092
2072
2047
2039
2030
2032
2047
2057
2034
2013
2013
2034
2064
2096
2095
2039
1974
1929
1919
1939
2019
2122
2224
2295
2295
2246
2167
2109
2075
2070
2070
2092
2086
2045
2005
1966
1963
1992
2034
2095
2109
2101
2064
2032
2005
2006
2002
2013
2043
2064
2059
2026
1988
1987
1997
2013
2022
2010
1973
1920
1878
1866
1913
1975
2035
2064
2025
1975
1941
1923
1954
2003
2047
2066
2075
2099
2112
2118
2119
2146
2167
2175
2155
2111
2054
1997
1965
1967
2017
2091
2149
2160
2138
2096
2064
2083
2114
2162
2207
2203
2163
2118
2112
2126
2150
2172
2195
2192
2162
2135
2142
2167
2188
2195
2191
2167
2111
2029
1993
1997
2032
2071
2134
2163
2150
2111
2063
2017
1983
1957
1957
1971
1968
1936
1867
1836
1840
1887
1935
1984
2013
2042
2023
2000
1969
1947
1936
1947
1950
1917
1874
1857
1853
1867
1930
2027
2122
2163
2162
2132
2093
2027
1985
1977
1997
2000
1993
1977
1962
1926
1920
1943
1990
2005
2002
1977
1939
1924
1933
1943
1968
2018
2055
2038
2005
1968
1950
1947
1937
1955
1977
1999
2033
2069
2042
2000
1990
2000
2025
2039
2033
2000
1946
1923
1936
1972
2015
2062
2065
2031
2003
1994
1991
2000
2019
2038
2039
2029
2000
1957
1934
1923
1951
1981
2000
2014
2031
2039
2043
2059
2069
2091
2095
2059
2017
1993
1989
2027
2075
2093
2064
2019
1984
1952
1945
1967
2005
2057
2093
2098
2080
2039
2002
2000
2015
2034
2061
2045
2026
2022
2007
1995
1994
2003
2030
2047
2061
2069
2079
2106
2149
2176
2192
2208
2185
2135
2056
1984
1946
1963
2029
2110
2178
2195
2146
2091
2039
2027
2047
2082
2096
2064
1997
1918
1872
1871
1907
1983
2041
2054
2024
1968
1929
1952
2000
2067
2094
2094
2062
1987
1933
1892
1895
1950
2029
2085
2079
2032
1977
1925
1904
1921
1967
2005
2031
2053
2044
2037
2037
2056
2080
2125
2129
2115
2096
2067
2038
2030
2047
2124
2176
2178
2151
2115
2093
2090
2124
2192
2251
2286
2269
2215
2174
2144
2160
2201
2239
2231
2183
2098
1994
1930
1913
1968
2067
2150
2169
2141
2082
2015
1968
1968
1981
2005
2003
1971
1935
1901
1874
1882
1899
1909
1911
1861
1811
1758
1734
1771
1863
1968
2064
2096
2065
1993
1941
1913
1929
1973
1998
1984
1953
1898
1866
1843
1856
1903
1950
1971
1954
1917
1859
1802
1791
1840
1910
1963
1991
1975
1919
1871
1874
1913
1949
1973
1978
1958
1907
1856
1843
1855
1893
1935
1948
1925
1884
1823
1744
1716
1762
1857
1947
1982
1979
1939
1905
1879
1878
1919
1957
1975
1978
1946
1898
1874
1890
1917
1939
1948
1933
1902
1856
1824
1840
1883
1947
1983
1961
1906
1850
1809
1808
1838
1899
1966
1989
1985
1946
1903
1873
1865
1872
1888
1903
1899
1877
1868
1871
1882
1921
1968
2000
2000
1971
1909
1867
1853
1872
1926
1969
1973
1956
1893
1831
1794
1813
1885
1960
2013
2039
2021
1968
1933
1937
1975
2006
2016
2006
1986
1981
2011
2067
2117
2161
2176
2166
2115
2018
1925
1872
1878
1911
1963
1994
1995
1951
1889
1845
1843
1873
1904
1913
1902
1873
1842
1810
1808
1835
1883
1921
1930
1904
1857
1823
1808
1830
1875
1919
1951
1939
1899
1842
1809
1815
1851
1903
1925
1926
1901
1851
1793
1777
1803
1873
1955
1998
1998
1967
1929
1911
1955
1999
2043
2065
2017
1951
1895
1839
1807
1834
1908
2003
2096
2128
2112
2070
2038
2034
2081
2128
2153
2146
2098
2061
2047
2074
2103
2122
2118
2091
2035
1994
1954
1947
1973
2032
2069
2061
2032
2000
1968
1970
1978
1998
2019
2019
1983
1918
1829
1774
1769
1820
1869
1905
1895
1866
1825
1779
1797
1872
1953
2005
1997
1965
1905
1865
1823
1802
1810
1833
1877
1891
1850
1795
1770
1783
1839
1902
1935
1937
1904
1855
1843
1879
1936
1987
2018
2007
1968
1890
1815
1783
1821
1877
1923
1941
1915
1863
1809
1797
1826
1883
1943
1990
1995
1967
1915
1863
1839
1841
1872
1871
1822
1770
1750
1755
1798
1859
1935
1999
2013
1974
1905
1824
1777
1778
1843
1897
1920
1919
1866
1801
1762
1763
1819
1901
1966
1978
1962
1925
1899
1891
1920
1950
1984
1985
1957
1903
1847
1813
1823
1872
1943
1995
2010
1984
1930
1885
1870
1862
1886
1919
1920
1886
1838
1801
1807
1838
1903
1955
1997
2000
1961
1905
1874
1879
1921
1973
2000
1984
1941
1894
1843
1835
1878
1949
2013
2032
2001
1935
1882
1869
1907
1981
2087
2177
2243
2288
2283
2262
2237
2202
2187
2180
2147
2064
1947
1883
1876
1908
1955
1982
1977
1943
1910
1867
1859
1893
1936
2000
2032
2014
1953
1878
1845
1853
1882
1931
1941
1937
1904
1839
1803
1789
1828
1893
1947
1998
2001
1978
1945
1922
1933
1968
2002
2018
2015
1981
1937
1910
1913
1952
2006
2064
2090
2083
2039
2002
2000
2031
2082
2134
2156
2129
2064
1999
1986
2014
2090
2132
2158
2181
2170
2158
2151
2176
2217
2254
2250
2224
2177
2133
2098
2082
2084
2121
2160
2193
2210
2194
2165
2153
2175
2225
2275
2277
2225
2141
2059
2001
1984
2006
2058
2081
2075
2022
1945
1885
1835
1839
1904
1986
2018
2007
1989
1968
1965
1987
2045
2083
2091
2058
1991
1914
1865
1859
1893
1923
1947
1972
1965
1942
1935
1946
1977
2033
2074
2084
2037
1989
1937
1904
1904
1970
2032
2077
2069
2006
1949
1905
1927
1986
2042
2074
2063
2031
1987
1955
1957
1986
2031
2067
2071
2060
1995
1920
1904
1922
1965
2002
2023
2017
1981
1933
1909
1917
1965
2032
2076
2059
1995
1927
1866
1859
1898
1968
2033
2059
2038
1985
1939
1911
1926
1969
2026
2066
2061
2013
1970
1931
1929
1977
2034
2087
2083
2038
1984
1950
1943
1972
2022
2065
2075
2034
1974
1919
1887
1890
1925
1963
1995
2015
2015
1990
1954
1945
1947
1969
2008
2016
1999
1947
1917
1935
1981
2047
2105
2131
2103
2031
1961
1906
1909
1950
2009
2066
2099
2091
2055
2034
2035
2059
2098
2130
2148
2151
2142
2143
2154
2179
2226
2256
2242
2204
2141
2071
2029
2032
2070
2112
2139
2133
2098
2061
2036
2033
2058
2090
2096
2077
2025
1970
1949
1968
2007
2063
2096
2087
2043
1998
1943
1910
1919
1963
2005
2042
2061
2019
1984
1959
1979
2015
2057
2064
2056
2042
2021
2017
2035
2058
2105
2154
2178
2179
2141
2090
2063
2066
2096
2133
2150
2144
2116
2090
2089
2097
2139
2192
2235
2256
2245
2207
2177
2176
2221
2287
2334
2347
2315
2254
2197
2182
2195
2247
2289
2301
2289
2240
2159
2097
2096
2137
2195
2241
2257
2224
2169
2102
2093
2117
2178
2235
2262
2222
2141
2075
2038
2032
2061
2099
2117
2098
2039
1983
1947
1947
1985
2060
2106
2127
2112
2058
2000
1991
2006
2043
2075
2102
2075
2011
1940
1889
1877
1925
1996
2057
2080
2059
2009
1983
1985
2032
2105
2157
2157
2109
2035
1985
1973
2000
2046
2109
2126
2095
2033
1984
1958
1972
2027
2097
2119
2111
2059
2010
1988
1997
2042
2096
2122
2108
2054
1975
1921
1895
1922
1973
2021
2039
2023
1968
1907
1877
1899
1957
2023
2057
2047
2032
1993
1978
1987
2015
2055
2089
2087
2063
2001
1953
1938
1952
1989
2031
2045
2035
2003
1961
1926
1893
1885
1906
1930
1942
1924
1909
1898
1904
1970
2065
2122
2111
2057
1968
1873
1813
1814
1863
1923
1999
2017
1982
1933
1905
1919
1959
1995
2006
2011
1981
1936
1908
1909
1945
1996
2025
2013
1973
1915
1879
1887
1941
2015
2095
2128
2126
2087
2031
1995
2011
2074
2138
2201
2226
2210
2166
2103
2055
2033
2053
2047
2032
2001
1967
1920
1904
1935
1984
2033
2063
2031
1974
1906
1866
1855
1875
1918
1963
1968
1936
1878
1831
1831
1856
1891
1906
1899
1839
1753
1713
1726
1774
1851
1918
1937
1911
1856
1810
1772
1776
1827
1857
1867
1855
1806
1739
1723
1764
1830
1903
1955
1974
1957
1933
1889
1871
1893
1940
1991
1999
1978
1930
1872
1850
1883
1946
2007
2071
2095
2064
2012
1967
1954
1984
2031
2070
2093
2095
2063
2023
2017
2023
2043
2071
2083
2037
1972
1907
1872
1873
1887
1891
1910
1917
1872
1825
1810
1825
1864
1910
1943
1933
1888
1808
1727
1698
1703
1755
1803
1833
1839
1813
1780
1755
1758
1785
1801
1793
1759
1710
1661
1619
1627
1665
1722
1773
1773
1739
1664
1613
1591
1628
1680
1735
1786
1776
1728
1680
1631
1648
1691
1753
1785
1776
1713
1639
1587
1586
1616
1680
1732
1761
1742
1706
1655
1636
1649
1695
1728
1745
1728
1679
1638
1604
1615
1655
1710
1744
1734
1697
1646
1597
1585
1621
1682
1735
1744
1728
1690
1638
