2092
2189
2259
2221
2074
1906
1813
1835
1936
2071
2146
2143
2081
1959
1861
1840
1921
2042
2151
2166
2081
1936
1823
1803
1903
2064
2210
2277
2224
2090
1977
1947
2027
2171
2342
2430
2378
2210
1984
1782
1662
1659
1712
1738
1680
1516
1315
1190
1221
1397
1650
1875
2031
2064
2002
1914
1869
1937
2093
2225
2289
2235
2112
1955
1863
1883
2025
2188
2303
2303
2183
2018
1895
1867
1949
2100
2246
2331
2293
2167
2035
1963
1990
2095
2223
2294
2265
2135
1981
1891
1903
2013
2176
2301
2318
2233
2093
1972
1938
2002
2122
2226
2257
2187
2066
1961
1917
1971
2106
2245
2331
2331
2234
2102
2002
2014
2127
2265
2375
2390
2299
2160
2047
2023
2128
2278
2397
2429
2361
2235
2113
2061
2107
2226
2368
2448
2425
2317
2173
2075
2078
2187
2337
2454
2475
2367
2224
2119
2092
2150
2265
2375
2410
2336
2209
2117
2085
2117
2194
2263
2275
2191
2034
1872
1778
1794
1911
2064
2171
2170
2064
1901
1777
1747
1811
1938
2067
2125
2075
1951
1812
1746
1792
1904
2032
2125
2096
1955
1797
1711
1753
1872
2002
2093
2089
1981
1830
1713
1687
1781
1939
2083
2154
2102
1950
1790
1712
1773
1910
2027
2079
2032
1921
1785
1698
1708
1808
1942
2043
2058
1965
1825
1711
1681
1767
1907
2041
2097
2045
1906
1779
1739
1792
1917
2034
2093
2035
1922
1795
1714
1735
1847
1999
2106
2098
2000
1854
1737
1712
1807
1964
2110
2167
2101
1945
1791
1713
1754
1870
1986
2064
2030
1900
1764
1690
1707
1799
1937
2043
2058
1951
1809
1731
1731
1808
1907
2002
2047
1978
1825
1680
1616
1669
1797
1963
2071
2044
1919
1771
1665
1689
1802
1969
2096
2101
1998
1872
1794
1835
1974
2138
2269
2319
2227
2032
1833
1673
1602
1600
1616
1587
1475
1303
1139
1049
1090
1258
1497
1712
1823
1830
1792
1753
1786
1936
2137
2256
2255
2098
1914
1777
1743
1808
1938
2087
2183
2160
2033
1891
1813
1830
1936
2085
2190
2208
2115
1968
1863
1840
1922
2041
2138
2171
2106
1972
1871
1838
1905
2039
2176
2240
2194
2064
1917
1842
1883
2015
2183
2305
2319
2200
2056
1945
1927
1989
2127
2255
2291
2201
2058
1958
1936
1981
2070
2171
2211
2160
2043
1927
1870
1915
2045
2201
2313
2335
2255
2112
2001
1995
2095
2240
2359
2400
2335
2221
2110
2062
2110
2233
2352
2403
2358
2229
2095
2006
2024
2133
2279
2379
2371
2247
2071
1957
1934
2001
2139
2253
2287
2203
2054
1904
1823
1856
1957
2055
2090
2032
1920
1793
1703
1738
1853
1978
2056
2039
1940
1790
1680
1665
1749
1885
2015
2047
1979
1876
1744
1681
1739
1868
1997
2067
2018
1908
1779
1702
1728
1841
1979
2077
2067
1967
1810
1700
1697
1778
1919
2031
2047
1971
1844
1746
1703
1772
1909
2047
2112
2057
1924
1783
1669
1670
1795
1965
2064
2041
1906
1745
1648
1646
1730
1872
1999
2046
1981
1856
1735
1683
1735
1869
2006
2083
2059
1941
1829
1763
1808
1914
2042
2115
2095
1986
1845
1746
1733
1806
1936
2060
2091
2017
1913
1811
1773
1815
1927
2064
2128
2079
1933
1777
1699
1732
1847
1987
2091
2066
1959
1830
1723
1705
1776
1906
2032
2090
2035
1909
1792
1733
1783
1886
1985
2047
2013
1904
1791
1730
1774
1893
2043
2139
2121
1994
1825
1706
1707
1814
1983
2133
2182
2130
2027
1947
1936
2007
2130
2220
2204
2090
1855
1574
1359
1281
1330
1409
1442
1417
1337
1249
1231
1327
1503
1713
1920
2045
2059
1974
1897
1882
1936
2032
2151
2180
2115
1982
1851
1781
1799
1904
2055
2157
2159
2085
1978
1914
1873
1925
2031
2109
2115
2031
1882
1751
1718
1808
1971
2144
2247
2230
2113
1936
1827
1843
1957
2096
2171
2158
2058
1938
1871
1908
2006
2139
2241
2269
2192
2074
1973
1937
2013
2134
2269
2319
2250
2115
1994
1930
1945
2043
2194
2317
2339
2261
2138
2026
1981
2029
2145
2253
2289
2244
2162
2086
2047
2113
2208
2306
2359
2319
2221
2110
2031
2038
2144
2272
2361
2363
2279
2143
2033
2031
2127
2255
2338
2340
2255
2117
1992
1941
1981
2069
2167
2213
2150
2010
1879
1807
1834
1945
2103
2180
2151
2031
1871
1718
1663
1735
1872
1984
2026
1968
1876
1791
1744
1793
1901
2015
2091
2063
1943
1803
1719
1734
1822
1940
2035
2035
1956
1826
1715
1712
1811
1950
2064
2083
1995
1856
1733
1678
1726
1855
1997
2076
2017
1878
1728
1654
1695
1807
1952
2046
2032
1907
1759
1685
1711
1793
1927
2031
2055
1980
1856
1772
1727
1775
1881
1991
2067
2007
1877
1738
1663
1690
1797
1939
2046
2042
1936
1769
1651
1653
1758
1915
2045
2086
1999
1863
1743
1703
1770
1902
2021
2063
2021
1904
1772
1698
1734
1840
1981
2092
2081
1939
1782
1681
1696
1811
1986
2128
2167
2074
1906
1771
1719
1776
1908
2044
2091
2001
1865
1738
1682
1734
1881
2027
2119
2096
1945
1781
1669
1653
1757
1911
2038
2101
2047
1916
1808
1776
1844
1957
2064
2101
2034
1910
1779
1712
1735
1855
1997
2096
2109
2023
1917
1862
1905
2060
2254
2343
2310
2194
2010
1817
1661
1590
1594
1623
1600
1473
1296
1125
1088
1195
1372
1599
1775
1842
1812
1748
1711
1731
1847
1997
2141
2223
2176
2046
1923
1879
1929
2027
2111
2143
2096
1971
1856
1802
1863
1993
2145
2240
2240
2145
1989
1873
1859
1952
2081
2177
2199
2126
1983
1866
1834
1904
2062
2220
2295
2243
2112
1968
1886
1931
2091
2256
2313
2250
2128
1982
1891
1885
1984
2148
2275
2291
2194
2061
1904
1827
1873
2003
2160
2251
2256
2176
2061
1968
1984
2096
2224
2306
2304
2224
2113
2027
2020
2109
2233
2349
2393
2339
2193
2071
2033
2114
2279
2417
2463
2387
2218
2061
1987
2032
2155
2288
2364
2325
2192
2032
1934
1922
2006
2162
2279
2291
2187
2030
1875
1798
1840
1955
2089
2162
2111
1967
1837
1776
1824
1918
2023
2102
2098
1997
1860
1744
1727
1822
1941
2018
2014
1941
1811
1698
1669
1771
1959
2126
2193
2130
1977
1811
1739
1785
1936
2109
2227
2245
2148
1997
1883
1858
1922
2047
2158
2185
2123
1979
1872
1851
1939
2069
2179
2224
2170
2027
1870
1790
1810
1911
2034
2135
2139
2068
1936
1815
1763
1833
1968
2096
2128
2066
1955
1843
1812
1903
2047
2176
2211
2162
2045
1911
1830
1854
1942
2079
2160
2151
2026
1873
1780
1791
1904
2084
2213
2239
2166
2023
1891
1826
1887
2014
2157
2224
2187
2043
1877
1794
1829
1947
2101
2203
2196
2123
2026
1940
1936
2015
2131
2223
2250
2167
2035
1929
1887
1927
2032
2131
2161
2097
1968
1828
1765
1818
1937
2093
2182
2173
2066
1927
1840
1840
1931
2075
2192
2223
2127
1959
1820
1782
1873
2013
2120
2171
2133
2002
1855
1759
1783
1895
2035
2137
2166
2096
1982
1917
1947
2083
2224
2320
2344
2269
2139
1989
1847
1782
1801
1831
1810
1702
1532
1343
1235
1290
1434
1631
1787
1831
1777
1703
1659
1710
1863
2064
2210
2241
2150
1995
1862
1815
1904
2067
2226
2282
2213
2075
1950
1898
1926
2032
2189
2270
2235
2131
1980
1871
1890
2029
2192
2287
2275
2161
1998
1872
1851
1959
2127
2249
2291
2256
2129
1969
1875
1878
1977
2121
2224
2225
2129
2006
1943
1970
2093
2213
2305
2320
2251
2131
2035
2013
2099
2234
2366
2417
2352
2196
2045
1959
1991
2132
2303
2409
2390
2274
2118
2020
2032
2134
2271
2351
2353
2267
2147
2064
2080
2182
2322
2431
2453
2379
2246
2113
2039
2086
2192
2340
2429
2390
2246
2095
1991
1982
2058
2176
2267
2278
2193
2058
1937
1904
1978
2112
2213
2231
2128
1971
1841
1779
1821
1957
2115
2187
2119
1968
1795
1680
1701
1834
1994
2097
2103
2007
1862
1742
1717
1794
1921
2047
2112
2061
1939
1808
1727
1759
1872
2013
2111
2084
1966
1822
1744
1747
1850
2001
2112
2112
1993
1851
1738
1717
1794
1921
2047
2109
2060
1936
1823
1758
1807
1903
2021
2099
2078
1965
1822
1730
1747
1833
1942
2032
2043
1953
1814
1706
1671
1765
1915
2043
2117
2066
1921
1770
1687
1728
1826
1969
2064
2030
1922
1796
1719
1728
1809
1946
2064
2096
2035
1924
1778
1721
1787
1899
2005
2047
1950
1770
1599
1529
1605
1750
1916
2027
2029
1938
1808
1728
1733
1846
2002
2108
2112
2013
1877
1788
1744
1805
1920
2027
2047
1971
1854
1727
1663
1692
1811
1959
2064
2039
1927
1777
1678
1694
1808
1964
2093
2122
2032
1879
1759
1730
1795
1917
2043
2096
2026
1883
1742
1663
1719
1829
1931
1991
1949
1841
1715
1631
1645
1750
1905
2028
2038
1954
1835
1747
1747
1847
1984
2088
2112
2023
1871
1717
1639
1700
1862
2024
2112
2079
1968
1811
1711
1717
1829
1993
2119
2142
2078
1967
1883
1840
1862
1940
1994
1955
1782
1535
1331
1214
1209
1284
1372
1443
1461
1445
1408
1417
1524
1730
1933
2075
2112
2047
1915
1766
1705
1779
1924
2039
2082
2014
1898
1785
1730
1778
1895
2032
2131
2147
2064
1946
1847
1843
1935
2064
2135
2149
2069
1941
1855
1865
1955
2074
2178
2197
2112
1963
1809
1745
1800
1934
2087
2192
2173
2064
1934
1855
1872
1995
2161
2276
2263
2162
2019
1915
1882
1968
2127
2244
2278
2206
2084
1963
1936
1987
2099
2207
2269
2231
2122
2011
1967
2000
2112
2245
2346
2341
2243
2115
2021
2010
2103
2247
2367
2415
2345
2226
2097
2005
2001
2092
2205
2256
2204
2097
1989
1923
1942
2083
2261
2369
2377
2269
2121
1991
1955
2015
2159
2267
2288
2206
2069
1926
1857
1871
1926
2019
2107
2096
1974
1822
1744
1802
1922
2066
2154
2125
1999
1852
1746
1743
1835
1957
2087
2130
2062
1905
1776
1728
1791
1879
1993
2072
2029
1904
1771
1705
1742
1872
2038
2165
2179
2083
1966
1874
1879
1946
2054
2159
2169
2074
1920
1785
1738
1816
1981
2147
2246
2219
2096
1937
1846
1861
1950
2053
2115
2112
2032
1917
1797
1755
1803
1931
2065
2129
2092
1955
1813
1746
1799
1918
2034
2119
2091
1972
1839
1765
1808
1933
2081
2160
2144
2031
1872
1766
1751
1853
2003
2155
2218
2167
2017
1842
1740
1767
1874
2015
2121
2125
2041
1937
1887
1919
1998
2086
2157
2115
2005
1891
1814
1823
1904
2006
2102
2121
2061
1938
1808
1759
1836
1934
2043
2109
2080
1984
1879
1837
1879
1968
2091
2166
2176
2099
1968
1857
1850
1943
2081
2190
2225
2175
2027
1865
1778
1808
1909
2032
2128
2115
2011
1890
1823
1854
1968
2132
2245
2245
2128
1971
1840
1793
1868
1995
2116
2176
2143
2038
1919
1867
1891
1987
2108
2162
2134
2039
1907
1809
1793
1842
1935
2032
2063
1991
1900
1840
1827
1894
2019
2128
2128
2031
1885
1775
1739
1786
1886
2003
2070
2032
1925
1778
1697
1725
1849
2005
2112
2089
2007
1887
1791
1756
1810
1934
2044
2082
2001
1873
1750
1696
1766
1925
2092
2163
2109
1999
1887
1861
1938
2071
2198
2291
2303
2205
2038
1889
1825
1862
1897
1858
1743
1568
1354
1126
1015
1082
1261
1496
1690
1767
1728
1653
1648
1744
1916
2096
2192
2192
2112
1966
1855
1837
1915
2054
2172
2215
2134
1984
1855
1797
1847
1969
2114
2195
2190
2111
1997
1931
1929
2010
2145
2234
2190
2086
1924
1791
1754
1830
1979
2117
2177
2119
2011
1895
1853
1923
2042
2167
2210
2171
2030
1899
1839
1857
1983
2139
2265
2270
2176
2058
1945
1905
1968
2111
2256
2319
2260
2107
1952
1887
1921
2036
2171
2239
2209
2117
1977
1920
1968
2095
2239
2335
2322
2224
2087
1980
1958
2031
2159
2281
2319
2245
2128
2011
1994
2038
2128
2241
2317
2307
2201
2070
1994
2007
2103
2220
2282
2253
2141
1991
1879
1869
1953
2093
2193
2215
2127
1990
1869
1808
1857
1961
2066
2112
2031
1877
1747
1671
1695
1808
1946
2063
2083
1987
1849
1728
1673
1719
1844
1968
2017
1970
1842
1735
1703
1779
1922
2034
2083
2017
1906
1794
1732
1762
1867
1999
2089
2081
1986
1856
1742
1743
1840
1981
2094
2114
2036
1893
1776
1735
1772
1887
2015
2095
2047
1936
1794
1691
1682
1763
1889
1990
1985
1904
1776
1694
1712
1783
1904
1997
2015
1937
1816
1723
1691
1755
1869
1993
2081
2039
1905
1765
1676
1695
1828
1990
2082
2057
1935
1789
1686
1687
1776
1936
2075
2115
2047
1933
1821
1763
1808
1884
1973
2034
2018
1937
1813
1716
1715
1815
1951
2038
2006
1889
1735
1631
1616
1723
1875
1999
2026
1953
1839
1737
1715
1798
1929
2064
2129
2094
1968
1827
1744
1765
1872
2012
2117
2127
2016
1863
1734
1706
1761
1856
1929
1961
1923
1843
1769
1755
1829
1962
2103
2179
2154
2023
1894
1814
1827
1937
2063
2110
2071
1963
1823
1742
1762
1879
2047
2179
2224
2155
2002
1872
1812
1853
1943
2063
2124
2096
1995
1893
1833
1854
1955
2112
2229
2236
2087
1893
1743
1703
1783
1907
2014
2046
1979
1855
1748
1718
1795
1938
2081
2145
2095
1968
1843
1771
1785
1901
2064
2175
2187
2121
2017
1945
1968
2112
2293
2405
2401
2269
2077
1903
1808
1795
1792
1781
1733
1619
1443
1233
1104
1118
1255
1466
1647
1723
1714
1669
1655
1728
1881
2064
2195
2239
2177
2031
1881
1826
1871
1996
2133
2196
2157
2030
1905
1857
1907
2031
2158
2225
2211
2112
1982
1885
1873
1967
2106
2193
2206
2128
2011
1921
1909
1973
2095
2192
2187
2101
1956
1828
1780
1826
1949
2096
2206
2229
2151
1994
1878
1857
1926
2044
2155
2193
2143
2026
1936
1914
1951
2058
2181
2229
2176
2064
1937
1873
1903
2032
2179
2263
2254
2144
2000
1891
1907
2001
2160
2282
2311
2240
2136
2032
2027
2097
2183
2272
2320
2283
2186
2083
2014
2066
2177
2275
2311
2261
2153
2004
1923
1934
2037
2160
2229
2234
2175
2058
1936
1879
1920
2029
2125
2143
2066
1902
1744
1678
1715
1840
1984
2086
2085
1968
1794
1667
1647
1747
1918
2047
2073
1988
1826
1679
1623
1674
1807
1938
2009
1993
1886
1763
1699
1744
1875
2025
2113
2102
1990
1840
1727
1728
1811
1962
2058
2067
1975
1839
1723
1680
1767
1893
2000
2037
1991
1878
1744
1680
1727
1845
1974
2080
2086
1985
1845
1749
1746
1821
1935
2047
2101
2032
1903
1764
1702
1760
1894
2031
2102
2079
1982
1855
1779
1813
1949
2099
2195
2207
2130
1997
1897
1885
1990
2163
2306
2337
2251
2085
1927
1866
1923
2055
2176
2240
2199
2099
1983
1938
1983
2085
2193
2263
2255
2160
2011
1922
1945
2027
2141
2230
2225
2126
1989
1873
1834
1903
2032
2187
2271
2247
2128
1970
1903
1950
2045
2165
2266
2273
2165
2002
1897
1887
1958
2070
2155
2169
2083
1945
1856
1862
1965
2112
2229
2257
2185
2043
1882
1789
1815
1936
2112
2222
2219
2107
1947
1859
1873
1999
2163
2288
2289
2178
2003
1867
1815
1882
2029
2186
2251
2193
2043
1888
1809
1855
1985
2138
2224
2214
2128
2003
1904
1897
1968
2095
2191
2211
2115
1981
1877
1865
1947
2064
2133
2150
2081
1941
1819
1766
1818
1951
2105
2192
2176
2079
1943
1856
1859
1923
2021
2117
2143
2080
1973
1870
1834
1903
2034
2188
2253
2198
2073
1922
1836
1865
2000
2177
2311
2327
2241
2101
1987
1979
2071
2202
2281
2240
2063
1834
1631
1495
1456
1483
1530
1557
1504
1406
1344
1387
1552
1775
2011
2178
2227
2181
2114
2041
2029
2103
2199
2267
2259
2150
1989
1887
1867
1927
2064
2224
2300
2239
2098
1968
1907
1958
2108
2262
2348
2315
2189
2025
1915
1902
1979
2112
2229
2275
2229
2129
2033
1989
2047
2166
2288
2345
2288
2146
2003
1943
1998
2137
2271
2327
2311
2215
2096
2019
2007
2091
2222
2327
2370
2288
2173
2056
2000
2064
2206
2336
2391
2350
2226
2098
2045
2112
2285
2451
2512
2452
2311
2134
2032
2046
2163
2331
2459
2507
2446
2307
2172
2112
2160
2271
2386
2459
2426
2320
2175
2079
2096
2197
2318
2395
2385
2334
2201
2070
2029
2116
2256
2352
2352
2251
2087
1936
1883
1933
2043
2183
2224
2162
2032
1877
1800
1836
1933
2064
2157
2150
2041
1904
1811
1796
1883
2000
2096
2097
2007
1872
1759
1743
1827
1962
2087
2135
2094
1975
1861
1815
1844
1918
2001
2077
2062
1955
1821
1747
1759
1862
1987
2075
2090
2032
1939
1857
1834
1905
2000
2073
2093
2007
1889
1774
1713
1762
1890
2037
2127
2127
2033
1877
1759
1738
1819
1936
2047
2083
2010
1888
1789
1760
1843
1990
2128
2170
2086
1946
1818
1776
1824
1943
2095
2160
2109
1982
1831
1737
1761
1889
2063
2181
2182
2060
1872
1715
1676
1749
1877
1980
2031
1974
1844
1721
1664
1711
1838
1981
2081
2065
1947
1813
1737
1759
1852
1981
2087
2099
1995
1870
1787
1790
1869
1991
2097
2141
2089
1950
1802
1739
1771
1892
2022
2091
2064
1956
1798
1691
1679
1759
1903
2016
2054
1995
1904
1807
1757
1787
1903
2011
2061
1981
1842
1716
1686
1771
1903
2058
2135
2096
1968
1822
1733
1743
1856
2021
2137
2138
2045
1925
1815
1795
1887
2031
2133
2145
2055
1919
1795
1744
1811
1975
2130
2218
2175
2031
1865
1759
1771
1873
2025
2128
2112
1965
1775
1652
1635
1740
1908
2037
2073
1991
1840
1708
1649
1701
1837
2003
2115
2089
1971
1843
1745
1738
1845
2014
2129
2160
2092
1939
1835
1839
1902
2018
2138
2191
2160
2070
1970
1937
1984
2053
2089
2029
1857
1611
1355
1203
1199
1306
1465
1593
1657
1635
1582
1535
1590
1727
1876
2017
2091
2045
1936
1812
1749
1806
1918
2039
2127
2130
2035
1905
1821
1829
1931
2074
2192
2226
2177
2022
1899
1857
1919
2030
2139
2192
2144
2016
1903
1825
1845
1975
2133
2224
2207
2100
1968
1897
1917
2021
2150
2232
2234
2160
2013
1869
1796
1842
1966
2096
2160
2128
2007
1878
1822
1879
1996
2118
2178
2159
2058
1935
1859
1873
1984
2134
2255
2288
2243
2139
2013
1959
2007
2130
2251
2326
2294
2180
2038
1987
2036
2137
2242
2306
2299
2206
2075
1986
1996
2108
2224
2315
2322
2243
2085
1943
1894
1927
2033
2145
2192
2153
2032
1906
1838
1861
1968
2097
2163
2144
2032
1890
1790
1787
1891
2034
2157
2162
2042
1875
1760
1723
1785
1904
2018
2064
2018
1889
1746
1679
1709
1825
1965
2047
2030
1925
1779
1682
1709
1840
2026
2176
2182
2079
1906
1751
1707
1767
1905
2039
2083
2001
1879
1764
1718
1753
1871
1994
2058
2030
1920
1786
1712
1713
1789
1909
2010
2040
1981
1863
1754
1712
1790
1925
2078
2145
2097
1941
1788
1730
1786
1911
2064
2154
2123
1982
1808
1698
1697
1808
1965
2089
2121
2030
1882
1780
1759
1817
1929
2043
2096
2019
1869
1712
1646
1707
1841
1985
2065
2059
1969
1830
1706
1684
1774
1922
2055
2101
2047
1936
1815
1746
1790
1911
2044
2125
2101
1991
1879
1823
1871
1984
2096
2128
2043
1892
1749
1682
1723
1847
2007
2128
2161
2103
1995
1888
1831
1850
1939
2034
2079
2015
1904
1797
1748
1783
1872
2000
2063
2016
1905
1769
1695
1727
1840
2007
2131
2143
2047
1907
1798
1765
1835
1943
2043
2105
2032
1890
1767
1715
1778
1902
2031
2128
2129
2064
1953
1886
1927
2032
2151
2234
2240
2155
1971
1775
1627
1600
1630
1667
1659
1557
1393
1258
1234
1369
1601
1831
1971
2000
1947
1857
1813
1842
1949
2094
2193
2221
2139
2010
1904
1866
1921
2038
2160
2205
2150
2023
1895
1843
1907
2029
2151
2191
2146
2035
1918
1839
1857
1974
2113
2210
2218
2125
1968
1841
1814
1898
2035
2165
2205
2131
1987
1869
1841
1927
2074
2205
2250
2205
2081
1935
1854
1883
1985
2138
2263
2304
2241
2103
1938
1870
1933
2063
2180
2255
2229
2123
1999
1942
1984
2110
2227
2310
2285
2161
2015
1939
1966
2076
2225
2338
2365
2311
2196
2096
2067
2117
2229
2311
2325
2255
2122
1973
1904
1959
2128
2288
2364
2345
2234
2079
1971
1966
2066
2186
2254
2227
2119
1962
1826
1785
1855
1989
2126
2162
2092
1955
1846
1803
1844
1930
2031
2089
2046
1931
1792
1708
1728
1827
1953
2063
2073
1977
1837
1728
1703
1783
1933
2081
2155
2106
1951
1801
1738
1792
1903
2025
2127
2082
1937
1775
1650
1649
1766
1920
2039
2071
1998
1873
1767
1744
1821
1942
2059
2098
2054
1984
1891
1824
1843
1936
2051
2115
2100
1997
1853
1744
1737
1838
1984
2094
2097
2001
1870
1776
1774
1856
1978
2112
2169
2103
1955
1793
1691
1707
1833
1985
2087
2063
1941
1804
1734
1751
1857
1973
2066
2071
1987
1857
1762
1764
1871
2033
2179
2242
2178
2041
1893
1837
1875
1981
2096
2138
2078
1931
1776
1680
1713
1827
1968
2054
2039
1955
1846
1767
1764
1851
1957
2035
2046
1973
1838
1703
1662
1731
1871
2014
2098
2065
1939
1812
1744
1765
1886
2042
2154
2158
2047
1910
1807
1802
1925
2096
2226
2287
2222
2075
1942
1870
1883
1956
2042
2023
1880
1673
1443
1299
1286
1360
1486
1627
1712
1697
1646
1621
1670
1793
1951
2099
2149
2082
1939
1808
1755
1810
1943
2082
2141
2099
1975
1839
1776
1810
1910
2033
2128
2129
2027
1876
1773
1751
1851
2015
2155
2202
2144
2017
1919
1892
1924
2019
2129
2183
2146
2026
1889
1803
1820
1936
2077
2175
2190
2107
1970
1850
1797
1872
2037
2174
2206
2112
1967
1842
1807
1883
2022
2165
2229
2191
2069
1931
1851
1866
1972
2125
2249
2262
2176
2038
1937
1942
2039
2183
2297
2327
2251
2133
2055
2006
2032
2113
2211
2267
2239
2122
1987
1919
1965
2103
2256
2357
2357
2263
2105
1980
1951
2058
2209
2297
2282
2159
1968
1805
1746
1794
1917
2045
2103
2064
1951
1817
1738
1747
1854
1970
2047
2063
1967
1840
1733
1712
1782
1902
2001
2038
1984
1862
1740
1702
1771
1914
2055
2105
2047
1932
1805
1736
1772
1895
2032
2119
2123
2054
1936
1815
1759
1797
1891
1984
2022
1979
1859
1758
1747
1833
1927
2032
2109
2059
1918
1767
1664
1686
1807
1951
2081
2089
1994
1851
1733
1719
1835
1970
2083
2112
2023
1866
1729
1705
1799
1949
2098
2184
2151
2025
1867
1760
1766
1865
2005
2099
2090
1975
1828
1715
1663
1721
1857
1989
2045
1981
1856
1728
1665
1721
1856
1990
2077
2043
1936
1803
1729
1750
1851
1990
2101
2117
2032
1905
1818
1826
1923
2078
2206
2227
2111
1901
1732
1669
1723
1853
1998
2066
2012
1893
1760
1696
1741
1867
2031
2155
2174
2078
1903
1781
1747
1821
1927
2023
2045
1975
1869
1776
1744
1808
1935
2066
2131
2077
1946
1809
1771
1825
1967
2122
2241
2257
2192
2086
1982
1951
2014
2112
2162
2114
1942
1716
1489
1370
1382
1472
1570
1619
1600
1527
1457
1440
1535
1738
1979
2167
2225
2149
1997
1886
1881
1962
2081
2173
2191
2119
1999
1870
1815
1878
2026
2186
2257
2217
2090
1947
1872
1903
2003
2145
2233
2203
2087
1937
1840
1844
1939
2080
2192
2228
2155
2018
1889
1840
1910
2064
2231
2312
2255
2099
1936
1853
1891
2033
2190
2279
2277
2186
2057
1952
1920
1981
2111
2229
2263
2195
2084
1975
1959
2058
2173
2263
2310
2258
2142
2010
1938
1968
2083
2226
2330
2341
2253
2128
2047
2042
2139
2294
2411
2431
2367
2235
2109
2047
2111
2239
2357
2429
2401
2288
2186
2112
2113
2210
2335
2402
2359
2224
2046
1923
1902
1978
2102
2192
2225
2165
2035
1913
1858
1900
2027
2171
2211
2128
1977
1813
1734
1754
1857
2001
2098
2093
1995
1867
1757
1729
1797
1920
2036
2084
2007
1877
1777
1751
1814
1936
2068
2128
2074
1927
1803
1731
1761
1862
1997
2112
2115
1999
1850
1738
1728
1823
1943
2035
2065
1994
1882
1775
1738
1813
1954
2068
2096
2029
1901
1765
1681
1706
1838
1999
2103
2095
1985
1845
1743
1735
1839
1996
2128
2152
2064
1923
1781
1712
1762
1903
2033
2114
2078
1936
1797
1724
1749
1863
2007
2096
2081
1982
1846
1745
1727
1808
1927
2032
2047
1972
1857
1767
1728
1770
1891
2038
2134
2109
1993
1865
1806
1831
1923
2032
2101
2090
2000
1889
1810
1801
1866
1968
2059
2069
1990
1856
1744
1720
1791
1890
2000
2071
2037
1936
1830
1779
1818
1930
2071
2155
2158
2063
1915
1811
1805
1882
1989
2099
2160
2128
1993
1825
1722
1744
1840
1963
2047
2035
1953
1843
1766
1793
1895
2016
2112
2112
2019
1887
1787
1776
1841
1970
2096
2142
2083
1927
1781
1719
1774
1899
2017
2075
2029
1936
1847
1839
1916
2064
2211
2294
2276
2174
2001
1859
1788
1769
1774
1769
1712
1584
1414
1271
1227
1299
1449
1628
1761
1801
1770
1707
1709
1791
1939
2099
2204
2215
2126
1963
1840
1826
1915
2053
2140
2171
2109
1979
1841
1776
1824
1936
2069
2143
2111
1987
1866
1810
1838
1940
2072
2163
2164
2077
1955
1870
1872
1936
2064
2159
2182
2112
1984
1872
1843
1897
2010
2166
2243
2208
2095
1939
1855
1878
2001
2133
2227
2193
2064
1954
1868
1872
1974
2143
2283
2311
2227
2082
1951
1893
1957
2097
2229
2290
2234
2109
1984
1951
2002
2112
2255
2351
2352
2273
2145
2047
2032
2099
2227
2363
2420
2357
2195
2026
1954
2012
2159
2316
2416
2374
2224
2064
1948
1953
2066
2194
2264
2224
2091
1936
1839
1829
1915
2031
2128
2158
2084
1936
1811
1749
1791
1903
2017
2073
2017
1913
1780
1695
1719
1825
1952
2043
2033
1945
1814
1702
1673
1744
1878
1984
2027
1967
1829
1702
1650
1705
1845
1999
2082
2037
1930
1818
1729
1747
1856
1975
2039
2000
1887
1750
1658
1661
1760
1919
2061
2087
1995
1863
1761
1733
1800
1887
1974
2003
1938
1823
1694
1636
1693
1823
1968
2071
2055
1962
1839
1743
1716
1786
1929
2064
2095
2016
1877
1760
1723
1778
1893
2010
2082
2034
1914
1760
1690
1729
1843
1985
2080
2077
1971
1813
1709
1680
1751
1899
2020
2067
1999
1872
1767
1734
1802
1942
2085
2131
2066
1921
1791
1727
1766
1885
2037
2143
2133
2030
1902
1794
1758
1815
1930
2015
2047
1983
1866
1733
1664
1716
1856
2000
2079
2043
1936
1811
1733
1746
1841
1988
2096
2094
1985
1843
1734
1728
1834
1991
2123
2153
2064
1922
1798
1758
1835
1955
2074
2137
2095
1969
1817
1732
1766
1888
2032
2133
2114
2006
1874
1770
1759
1840
1947
2043
2068
1986
1868
1782
1776
1854
1979
2099
2166
2128
2014
1871
1771
1770
1856
1987
2091
2096
2013
1903
1842
1844
1920
2019
2094
2099
2011
1888
1775
1744
1821
1954
2091
2135
2087
1946
1799
1719
1744
1879
2029
2139
2131
2057
1914
1811
1804
1895
2037
2159
2186
2116
1981
1856
1782
1821
1939
2058
2101
2054
1926
1788
1718
1749
1883
2032
2112
2106
1999
1847
1731
1717
1793
1935
2054
2098
2015
1883
1792
1776
1831
1935
2037
2084
2021
1912
1790
1735
1803
1953
2128
2261
2307
2233
2110
2019
2000
2065
2141
2181
2128
1949
1706
1483
1362
1357
1421
1502
1535
1498
1436
1411
1455
1589
1792
2013
2172
2199
2127
1994
1904
1904
1989
2081
2131
2143
2070
1954
1848
1826
1909
2032
2150
2202
2146
2023
1900
1827
1856
1962
2119
2237
2255
2147
1990
1889
1887
1975
2117
2217
2227
2157
2033
1918
1886
1965
2112
2227
2277
2223
2079
1934
1855
1887
2006
2177
2290
2288
2192
2053
1947
1925
2000
2151
2271
2322
2234
2069
1936
1904
1990
2138
2258
2310
2254
2144
2020
1967
1987
2097
2224
2307
2303
2226
2121
2025
2021
2138
2283
2378
2405
2342
2211
2095
2059
2117
2227
2322
2371
2338
2238
2107
2032
2078
2192
2323
2387
2339
2192
2022
1934
1935
2028
2181
2315
2351
2255
2103
1963
1890
1921
2015
2127
2176
2126
1987
1866
1825
1872
1990
2105
2128
2079
1962
1840
1775
1798
1907
2019
2110
2119
2038
1871
1723
1674
1738
1874
2035
2173
2153
1996
1845
1767
1778
1872
1989
2064
2039
1936
1819
1748
1757
1850
1986
2109
2153
2079
1914
1771
1734
1817
1955
2083
2158
2123
1991
1859
1786
1798
1875
1983
2059
2045
1962
1816
1712
1724
1838
1973
2079
2094
2019
1898
1776
1728
1794
1931
2043
2095
2027
1891
1783
1730
1763
1870
2018
2128
2133
2039
1903
1789
1775
1853
1987
2085
2081
1983
1851
1733
1687
1776
1920
2073
2129
2090
1953
1823
1753
1783
1885
2010
2085
2047
1937
1786
1680
1678
1777
1938
2082
2128
2067
1937
1819
1767
1803
1933
2046
2086
2011
1890
1771
1714
1751
1851
1982
2091
2101
2023
1891
1789
1769
1840
1956
2067
2096
2003
1872
1778
1767
1848
1970
2103
2160
2092
1957
1831
1773
1815
1901
2015
2106
2096
1967
1802
1699
1701
1797
1934
2058
2096
2000
1862
1749
1715
1785
1911
2043
2109
2078
1968
1837
1789
1842
1936
2061
2145
2158
2064
1907
1791
1776
1860
1997
2111
2134
2055
1918
1815
1799
1890
2038
2169
2204
2109
1943
1789
1691
1685
1783
1935
2043
2044
1965
1856
1795
1793
1865
2000
2128
2158
2069
1908
1781
1735
1807
1951
2116
2193
2162
2066
1952
1920
1984
2121
2224
2275
2205
2059
1871
1751
1747
1835
1954
2053
2086
2002
1867
1754
1725
1806
1931
2058
2119
2065
1945
1817
1744
1777
1877
2023
2137
2139
2062
1920
1819
1823
1919
2079
2186
2204
2112
1962
1835
1789
1872
2030
2157
2225
2189
2093
1994
1955
1990
2090
2187
2224
2139
1919
1663
1466
1391
1424
1505
1563
1535
1479
1397
1357
1422
1599
1839
2063
2169
2128
2017
1904
1834
1873
1991
2151
2253
2254
2164
2033
1927
1904
1986
2108
2193
2202
2102
1941
1827
1808
1903
2039
2159
2193
2139
2033
1943
1902
1943
2063
2191
2256
2250
2154
2003
1904
1888
1964
2081
2165
2192
2139
2035
1955
1942
2028
2159
2256
2305
2259
2133
1973
1889
1922
2029
2170
2277
2275
2163
2022
1935
1936
2001
2112
2198
2226
2153
2037
1949
1936
2032
2192
2325
2384
2342
2234
2122
2058
2114
2224
2329
2393
2382
2286
2158
2069
2059
2146
2307
2427
2429
2307
2153
2032
1990
2046
2157
2262
2293
2237
2129
2011
1934
1943
2047
2198
2296
2251
2112
1943
1846
1871
1969
2111
2201
2203
2098
1933
1793
1744
1808
1930
2069
2139
2091
1951
1826
1763
1796
1913
2060
2132
2103
1973
1819
1733
1754
1865
2013
2113
2111
2000
1854
1744
1708
1776
1919
2054
2130
2095
1936
1776
1698
1749
1877
2003
2081
2064
1967
1841
1775
1774
1840
1950
2037
2059
1984
1870
1755
1721
1790
1920
2066
2139
2113
2017
1914
1831
1842
1936
2043
2107
2064
1921
1759
1665
1687
1797
1968
2107
2130
2042
1899
1776
1773
1854
1939
2031
2077
2023
1935
1838
1763
1773
1871
1984
2063
2062
1966
1835
1728
1712
1806
1929
2026
2051
1978
1839
1740
1722
1806
1951
2101
2153
2085
1936
1783
1709
1744
1857
1985
2055
2009
1907
1791
1721
1737
1856
2011
2128
2165
2098
1968
1826
1744
1791
1904
2033
2110
2055
1910
1759
1683
1735
1899
2061
2145
2128
2024
1876
1747
1718
1823
1966
2084
2123
2045
1893
1775
1748
1810
1918
2042
2107
2060
1936
1813
1761
1794
1881
2007
2111
2089
1990
1872
1781
1779
1862
1982
2091
2099
2011
1875
1775
1743
1817
1943
2076
2160
2135
2027
1889
1811
1839
1935
2039
2135
2125
2018
1859
1771
1789
1915
2043
2140
2139
2054
1917
1779
1727
1783
1911
2047
2113
2074
1947
1803
1737
1795
1933
2089
2170
2136
2038
1937
1873
1873
1967
2107
2206
2209
2109
1934
1792
1759
1829
1951
2097
2173
2129
1985
1826
1735
1757
1877
2005
2085
2073
1989
1883
1808
1827
1925
2071
2176
2184
2089
1942
1834
1808
1903
2059
2179
2222
2149
2015
1872
1821
1904
2059
2235
2368
2347
2199
2005
1859
1791
1774
1776
1765
1677
1520
1329
1156
1104
1198
1395
1632
1798
1839
1787
1723
1713
1808
1970
2141
2246
2239
2139
2002
1918
1918
2003
2150
2269
2299
2202
2047
1915
1871
1921
2033
2175
2249
2211
2083
1934
1850
1895
2034
2178
2252
2205
2063
1901
1801
1810
1917
2079
2192
2212
2128
2000
1901
1851
1907
2045
2187
2246
2195
2065
1941
1903
1977
2115
2256
2335
2318
2201
2067
1984
1997
2103
2243
2335
2325
2229
2089
1940
1883
1946
2096
2229
2293
2250
2128
2006
1987
2077
2192
2304
2372
2352
2240
2103
2018
2015
2097
2224
2330
2352
2288
2168
2045
2018
2093
2224
2351
2397
2349
2224
2086
2005
2030
2117
2237
2311
2282
2154
1988
1874
1856
1936
2064
2165
2177
2096
1953
1840
1807
1881
2019
2160
2193
2110
1941
1772
1695
1742
1872
2019
2114
2081
1937
1790
1699
1695
1782
1936
2061
2083
2004
1871
1731
1680
1741
1869
1991
2043
1989
1863
1729
1673
1729
1859
1998
2069
2038
1936
1799
1707
1727
1833
1965
2078
2097
2010
1857
1741
1729
1821
1959
2087
2124
2071
1965
1859
1797
1813
1903
2001
2069
2025
1897
1739
1625
1648
1771
1935
2047
2080
1974
1824
1715
1693
1771
1902
2000
2045
1989
1878
1763
1719
1744
1858
1990
2080
2059
1951
1834
1754
1740
1811
1933
2031
2034
1958
1839
1724
1694
1770
1920
2068
2142
2102
1988
1850
1783
1847
1977
2096
2125
2038
1887
1727
1631
1653
1764
1911
2026
2060
1985
1854
1743
1728
1806
1936
2054
2118
2071
1957
1810
1724
1745
1853
1993
2097
2094
1975
1830
1734
1723
1811
1941
2047
2079
1989
1856
1759
1742
1815
1971
2109
2160
2134
2059
1934
1875
1920
2023
2140
2192
2179
2096
1944
1808
1769
1831
1957
2062
2083
2014
1881
1759
1729
1833
1947
2032
2054
1983
1851
1729
1663
1715
1846
1999
2096
2077
1966
1839
1747
1755
1858
1997
2112
2145
2075
1959
1880
1869
1938
2085
2203
2236
2154
2012
1893
1850
1923
2064
2182
2240
2199
2102
1984
1946
1990
2070
2090
2011
1844
1607
1330
1102
976
1010
1184
1395
1565
1603
1568
1515
1552
1692
1903
2119
2245
2247
2135
1995
1904
1903
1983
2105
2207
2224
2151
2025
1920
1909
2000
2157
2286
2333
2271
2139
1997
1921
1938
2035
2160
2225
2181
2045
1906
1853
1911
2038
2190
2288
2270
2150
1998
1885
1846
1913
2057
2194
2278
2239
2126
1989
1895
1899
2007
2146
2243
2224
2122
2010
1955
1974
2078
2221
2345
2403
2347
2205
2084
2044
2094
2179
2277
2332
2297
2192
2083
2037
2096
2197
2315
2366
2352
2240
2107
2017
2029
2131
2288
2404
2430
2347
2211
2095
2035
2097
2209
2327
2378
2322
2202
2094
2039
2096
2224
2361
2419
2368
2205
2025
1894
1879
1984
2146
2258
2265
2145
1969
1831
1801
1853
1961
2064
2091
2017
1861
1715
1664
1715
1840
1975
2063
2057
1963
1807
1693
1699
1822
1981
2091
2098
1996
1854
1728
1681
1763
1920
2079
2133
2079
1943
1791
1694
1707
1817
1954
2047
2057
1964
1839
1749
1760
1856
1993
2109
2125
2025
1904
1779
1744
1811
1949
2064
2098
2015
1879
1748
1689
1744
1894
2069
2179
2150
2000
1835
1722
1699
1783
1907
2032
2074
1985
1854
1744
1713
1787
1926
2047
2087
2000
1866
1744
1697
1761
1902
2043
2127
2097
1974
1817
1712
1716
1824
1968
2067
2064
1967
1851
1767
1760
1839
1973
2100
2118
2033
1906
1776
1726
1776
1889
2025
2109
2082
1986
1897
1835
1846
1936
2077
2175
2176
2066
1892
1737
1696
1783
1929
2055
2098
2026
1891
1782
1728
1755
1857
1985
2074
2065
1962
1806
1707
1728
1829
1967
2077
2098
2032
1917
1805
1746
1794
1924
2064
2143
2100
1968
1823
1746
1798
1936
2106
2203
2227
2187
2112
2042
2030
2096
2179
2219
2128
1897
1584
1323
1203
1245
1360
1463
1505
1462
1374
1315
1331
1472
1691
1905
2047
2093
2029
1929
1869
1900
2000
2135
2222
2213
2123
1983
1851
1808
1856
1972
2099
2175
2137
2047
1941
1867
1915
2038
2171
2242
2229
2128
1990
1907
1902
1964
2096
2187
2188
2097
1959
1867
1875
1975
2121
2234
2273
2210
2047
1887
1813
1873
2007
2143
2224
2199
2113
1995
1927
1957
2096
2243
2320
2320
2260
2141
2025
2002
2066
2172
2276
2314
2271
2158
2026
1959
1990
2110
2238
2327
2310
2209
2070
1980
1997
2112
2266
2373
2385
2298
2147
2027
2000
2078
2234
2384
2441
2397
2252
2096
2003
2047
2164
2293
2381
2361
2254
2080
1927
1910
1998
2128
2224
2203
2083
1920
1806
1788
1891
2043
2172
2192
2105
1946
1789
1701
1731
1843
1961
2027
1997
1894
1768
1690
1706
1798
1935
2055
2093
1989
1826
1712
1694
1767
1887
2006
2070
2037
1937
1808
1733
1776
1899
2025
2114
2103
1986
1846
1744
1748
1839
1968
2063
2096
2007
1876
1770
1739
1819
1968
2113
2153
2055
1905
1766
1693
1735
1856
1984
2063
2027
1905
1773
1700
1723
1826
1970
2077
2096
2010
1882
1794
1800
1876
1986
2100
2149
2082
1947
1807
1744
1797
1906
2032
2105
2075
1955
1825
1746
1773
1894
2043
2146
2138
2038
1913
1807
1760
1805
1905
1995
2015
1955
1840
1731
1694
1749
1871
2020
2128
2098
1962
1793
1703
1717
1811
1936
2029
2041
1967
1844
1738
1722
1803
1955
2107
2169
2127
1985
1825
1738
1753
1851
1984
2071
2063
1983
1867
1799
1846
1982
2139
2256
2284
2197
2041
1923
1851
1824
1840
1849
1777
1627
1411
1226
1115
1147
1296
1491
1665
1721
1707
1671
1661
1717
1847
2011
2159
2197
2127
1983
1867
1835
1898
2019
2133
2167
2099
1979
1873
1850
1922
2051
2192
2258
2193
2046
1887
1798
1808
1910
2063
2176
2190
2107
1984
1885
1845
1894
2019
2151
2187
2112
1978
1861
1819
1895
2047
2191
2256
2192
2078
1952
1862
1857
1949
2080
2187
2208
2135
2013
1930
1922
2016
2161
2237
2245
2154
2021
1921
1881
1941
2086
2224
2303
2277
2174
2039
1965
1990
2109
2255
2364
2377
2310
2185
2067
2059
2131
2258
2371
2415
2351
2225
2096
2021
2058
2166
2287
2343
2282
2146
2000
1919
1935
2033
2170
2255
2241
2111
1934
1785
1746
1828
1981
2103
2122
2047
1906
1778
1701
1747
1861
1985
2062
2026
1920
1792
1699
1695
1779
1912
2005
2016
1926
1790
1695
1683
1774
1914
2045
2077
1985
1838
1717
1683
1744
1861
1968
2007
1953
1834
1707
1631
1667
1792
1921
2013
2021
1933
1807
1691
1662
1739
1862
1981
2031
1974
1849
1744
1671
1695
1815
1970
2064
2046
1936
1792
1691
1702
1799
1930
2026
2027
1950
1831
1728
1727
1803
1936
2070
2122
2038
1887
1730
1649
1703
1831
1971
2065
2067
1970
1814
1707
1712
1814
1955
2065
2074
1966
1813
1712
1691
1791
1915
1995
2011
1923
1792
1680
1631
1703
1838
1973
2039
1998
1886
1762
1686
1718
1829
1974
2074
2073
1967
1808
1674
1642
1712
1839
1967
2013
1957
1848
1745
1696
1735
1852
2009
2118
2114
2035
1946
1895
1925
2039
2161
2235
2195
2046
1823
1599
1462
1461
1533
1611
1599
1488
1366
1284
1284
1421
1633
1829
1959
1970
1883
1791
1733
1767
1894
2054
2165
2189
2106
1966
1850
1823
1886
1997
2085
2086
1984
1860
1766
1744
1808
1934
2055
2126
2116
2045
1935
1843
1872
2006
2150
2196
2148
2007
1850
1760
1759
1843
1985
2112
2149
2089
1941
1807
1765
1839
1974
2115
2207
2174
2047
1909
1844
1879
2000
2148
2246
2235
2109
1935
1814
1798
1883
2021
2160
2208
2160
2059
1949
1914
1957
2089
2244
2338
2310
2206
2098
2023
2030
2128
2284
2398
2383
2258
2100
1987
1970
2047
2175
2271
2300
2253
2141
2031
1975
2017
2130
2256
2303
2231
2069
1895
1799
1805
1907
2058
2146
2128
2026
1893
1792
1767
1842
1978
2090
2110
2019
1870
1728
1670
1733
1866
2007
2093
2065
1937
1789
1686
1669
1744
1873
1991
2029
1954
1825
1717
1686
1744
1859
1967
1994
1909
1785
1664
1617
1691
1826
1963
2032
1995
1879
1745
1680
1703
1809
1947
2064
2082
1997
1842
1712
1680
1749
1875
2003
2064
1991
1855
1730
1681
1737
1840
1969
2043
2015
1902
1753
1680
1715
1838
1985
2097
2109
2000
1843
1737
1733
1835
1959
2059
2069
1974
1839
1719
1695
1792
1954
2106
2162
2109
1971
1814
1707
1729
1851
2010
2128
2123
1999
1822
1680
1655
1749
1884
1985
2000
1933
1811
1710
1675
1742
1863
1999
2081
2065
1954
1814
1730
1746
1839
1971
2090
2109
2017
1872
1739
1697
1765
1921
2074
2121
2054
1920
1790
1749
1792
1888
1997
2047
1997
1892
1783
1728
1773
1906
2103
2259
2309
2247
2103
1927
1809
1795
1823
1830
1777
1673
1520
1363
1264
1285
1421
1584
1707
1742
1685
1620
1617
1728
1893
2064
2174
2183
2094
1946
1840
1817
1914
2068
2196
2228
2156
2005
1871
1819
1871
1993
2125
2198
2162
2027
1871
1785
1809
1937
2112
2228
2236
2128
1969
1844
1814
1870
1987
2121
2179
2130
2004
1879
1851
1915
2035
2160
2218
2166
2033
1904
1840
1875
1995
2141
2246
2245
2167
2065
1981
1943
1987
2096
2198
2256
2224
2115
1995
1967
2018
2139
2256
2322
2285
2169
2029
1959
1987
2115
2287
2385
2382
2274
2129
2037
2043
2138
2262
2367
2395
2321
2178
2055
2000
2069
2192
2320
2380
2337
2224
2096
2011
2034
2129
2251
2338
2320
2230
2090
1956
1908
1968
2085
2187
2213
2126
1977
1843
1808
1874
1981
2083
2122
2069
1946
1795
1695
1709
1838
2013
2131
2128
1987
1799
1669
1649
1733
1883
2011
2063
2005
1879
1747
1691
1757
1903
2047
2113
2066
1936
1786
1703
1728
1847
1983
2075
2075
1968
1821
1719
1710
1806
1952
2082
2123
2067
1946
1813
1747
1791
1935
2080
2130
2067
1923
1783
1694
1729
1846
1991
2112
2129
2025
1883
1773
1730
1781
1908
2031
2075
2023
1904
1783
1714
1747
1855
1970
2038
2008
1901
1769
1693
1729
1858
2015
2110
2105
2011
1887
1790
1759
1823
1956
2084
2128
2078
1949
1825
1776
1808
1899
2014
2093
2066
1954
1827
1743
1753
1839
1957
2042
2061
1984
1871
1766
1743
1843
1994
2112
2143
2063
1911
1786
1761
1847
1965
2077
2122
2077
1939
1779
1687
1715
1843
2001
2115
2109
1999
1855
1759
1759
1854
1986
2109
2130
2047
1915
1776
1713
1765
1901
2038
2129
2118
2006
1866
1775
1797
1907
2035
2122
2100
1977
1852
1782
1799
1930
2119
2274
2343
2275
2126
1963
1867
1853
1879
1901
1854
1731
1582
1419
1297
1264
1328
1482
1678
1808
1838
1789
1760
1808
1919
2096
2217
2243
2160
2019
1899
1847
1909
2058
2209
2285
2231
2063
1887
1798
1850
1991
2149
2239
2224
2123
1964
1853
1838
1930
2062
2185
2235
2192
2073
1931
1866
1905
2025
2160
2233
2211
2109
1965
1861
1872
1977
2131
2255
2270
2193
2073
1962
1951
2038
2172
2273
2293
2219
2084
1961
1903
1954
2082
2207
2279
2245
2160
2046
1996
2047
2143
2247
2305
2302
2223
2106
2032
2035
2128
2255
2358
2382
2318
2206
2091
2038
2112
2263
2425
2502
2459
2322
2175
2081
2091
2199
2339
2421
2421
2340
2205
2102
2099
2181
2279
2350
2346
2243
2111
1985
1927
1967
2069
2178
2246
2205
2074
1915
1835
1861
1967
2094
2158
2125
2000
1847
1741
1735
1839
1984
2096
2103
2026
1894
1773
1713
1760
1854
1965
2023
1989
1894
1776
1712
1742
1859
2000
2089
2071
1968
1817
1701
1667
1749
1885
2000
2047
1999
1890
1787
1756
1808
1923
2060
2117
2082
1974
1872
1838
1845
1904
1999
2084
2073
1966
1809
1695
1667
1776
1934
2045
2080
2000
1863
1739
1702
1785
1936
2064
2117
2073
1953
1808
1714
1751
1853
1955
2033
2032
1930
1786
1695
1702
1797
1939
2067
2139
2105
1987
1871
1804
1817
1908
2010
2063
2017
1909
1807
1746
1775
1876
2005
2087
2078
1997
1861
1745
1730
1803
1920
2016
2033
1961
1835
1712
1679
1769
1911
2039
2106
2067
1932
1802
1724
1729
1830
1969
2077
2070
1969
1823
1706
1681
1767
1910
2035
2106
2053
1931
1813
1759
1810
1933
2058
2115
2081
1968
1840
1749
1771
1872
1999
2098
2111
2031
1901
1790
1759
1847
1966
2042
2047
1975
1855
1726
1663
1707
1846
1978
2058
2022
1931
1808
1744
1770
1875
2019
2116
2122
2023
1871
1751
1729
1808
1949
2097
2151
2096
1958
1824
1772
1830
1968
2095
2154
2122
2009
1867
1791
1831
1929
2031
2077
2031
1920
1787
1696
1707
1803
1938
2064
2109
2034
1903
1791
1761
1837
1974
2125
2202
2166
2028
1856
1767
1795
1909
2039
2131
2126
2010
1865
1753
1730
1812
1952
2090
2129
2043
1904
1786
1737
1779
1877
1984
2037
1995
1876
1748
1697
1735
1858
2002
2107
2098
1997
1874
1783
1792
1885
1984
2071
2105
2062
1942
1823
1781
1854
2000
2162
2242
2237
2128
1974
1867
1845
1909
1989
2019
1947
1765
1573
1430
1365
1385
1454
1535
1616
1616
1578
1535
1605
1744
1920
2110
2222
2193
2082
1942
1851
1842
1935
2064
2142
2139
2033
1911
1840
1863
1978
2122
2195
2176
2069
1935
1833
1774
1820
1957
2117
2219
2195
2076
1913
1823
1872
1983
2122
2195
2170
2070
1925
1831
1823
1934
2083
2206
2229
2152
2032
1919
1871
1923
2047
2185
2241
2183
2058
1934
1872
1925
2042
2185
2273
2283
2192
2077
1989
1968
2029
2138
2218
2209
2123
2001
1906
1895
1996
2144
2289
2366
2311
2187
2045
1968
1989
2103
2250
2350
2347
2261
2125
2015
2009
2109
2269
2399
2430
2365
2211
2069
1995
2027
2139
2269
2330
2287
2157
2009
1938
1978
2075
2185
2255
2221
2099
1943
1825
1805
1886
2034
2182
2223
2130
1955
1793
1719
1751
1867
2006
2075
2043
1954
1840
1759
1776
1872
1996
2077
2055
1943
1805
1694
1675
1744
1873
1994
2031
1980
1842
1706
1659
1737
1886
2047
2110
2058
1925
1775
1690
1709
1805
1943
2064
2091
1999
1841
1713
1678
1747
1878
1999
2045
1997
1889
1791
1743
1792
1903
2016
2074
2025
1914
1792
1717
1753
1865
1986
2093
2111
2015
1859
1735
1702
1780
1907
2010
2036
1981
1863
1741
1681
1744
1872
2009
2091
2043
1910
1763
1702
1738
1840
1977
2082
2079
1967
1815
1711
1711
1809
1941
2039
2084
2032
1931
1799
1744
1794
1905
2005
2054
2006
1897
1767
1685
1701
1802
1934
2032
2053
1965
1836
1766
1751
1818
1931
2047
2093
2035
1913
1781
1714
1770
1893
2034
2113
2062
1923
1792
1713
1751
1890
2031
2116
2092
1966
1808
1697
1680
1779
1938
2094
2130
2053
1915
1822
1776
1808
1914
2034
2095
2055
1936
1808
1731
1761
1869
2000
2091
2071
1954
1806
1697
1697
1808
1951
2065
2100
2015
1863
1737
1710
1791
1934
2071
2127
2085
1949
1808
1744
1789
1904
2032
2112
2096
1986
1859
1766
1747
1815
1926
2042
2103
2040
1911
1790
1744
1806
1937
2074
2128
2086
1947
1823
1776
1821
1939
2082
2156
2142
2039
1914
1822
1810
1894
2025
2142
2171
2089
1943
1840
1818
1907
2039
2129
2138
2065
1936
1797
1712
1745
1865
2000
2096
2096
2001
1882
1803
1788
1855
1971
2081
2105
2004
1853
1727
1690
1761
1877
2000
2079
2074
1987
1893
1847
1886
2021
2201
2325
2341
2259
2109
1947
1866
1873
1934
1978
1933
1776
1573
1376
1268
1278
1398
1569
1692
1727
1680
1629
1633
1750
1941
2128
2241
2253
2162
1996
1876
1834
1883
1986
2107
2171
2133
2011
1897
1855
1920
2029
2153
2207
2164
2055
1927
1872
1910
2043
2179
2269
2256
2135
1988
1882
1867
1956
2102
2227
2265
2190
2041
1907
1849
1909
2035
2182
2251
2203
2064
1903
1825
1859
1973
2131
2256
2279
2183
2045
1958
1959
2043
2175
2289
2313
2233
2102
1986
1957
2033
2164
2288
2354
2325
2224
2123
2099
2139
2206
2272
2311
2265
2143
2007
1921
1933
2039
2189
2300
2339
2287
2178
2091
2064
2126
2241
2358
2403
2341
2195
2039
1983
2042
2185
2333
2415
2388
2277
2125
2005
1982
2037
2157
2256
2256
2176
2027
1911
1873
1942
2054
2141
2142
2042
1907
1773
1686
1715
1833
1970
2078
2074
1968
1840
1744
1735
1835
1968
2055
2047
1953
1799
1686
1657
1742
1881
2013
2091
2061
1949
1810
1741
1791
1904
2004
2064
2032
1937
1807
1712
1696
1786
1909
2017
2061
2003
1889
1791
1758
1811
1906
2001
2062
2027
1911
1786
1732
1773
1872
1995
2087
2083
1987
1840
1729
1730
1837
1973
2099
2147
2096
1966
1843
1809
1859
1966
2086
2149
2092
1936
1779
1712
1744
1845
1985
2078
2061
1947
1808
1718
1717
1807
1945
2030
2034
1955
1824
1730
1715
1803
1950
2107
2182
2145
2029
1904
1839
1853
1897
1981
2059
2027
1898
1759
1687
1714
1827
1968
2080
2102
2044
1936
1850
1823
1920
2034
2114
2134
2055
1901
1745
1675
1723
1855
2002
2112
2097
1984
1850
1751
1744
1835
1979
2099
2129
2064
1930
1808
1787
1855
1968
2079
2128
2091
1968
1857
1803
1849
1937
2043
2096
2083
1997
1872
1791
1786
1872
2014
2118
2138
2070
1943
1815
1750
1794
1921
2055
2113
2077
1979
1872
1827
1877
2000
2142
2215
2180
2058
1894
1767
1739
1831
1986
2114
2162
2106
1959
1834
1789
1850
1989
2138
2193
2148
2033
1919
1831
1845
1939
2072
2148
2118
2013
1872
1779
1797
1925
2096
2221
2245
2169
2030
1907
1855
1902
2006
2119
2154
2096
1977
1860
1776
1781
1885
2032
2128
2112
2015
1879
1782
1773
1869
2011
2135
2176
2117
2001
1879
1837
1894
2014
2126
2173
2143
2032
1887
1779
1786
1894
2035
2145
2153
2063
1933
1853
1863
1981
2147
2279
2327
2277
2149
2021
1942
1943
1957
1951
1904
1746
1526
1316
1181
1182
1308
1505
1679
1742
1702
1639
1642
1718
1856
2029
2186
2251
2196
2084
1979
1927
1981
2106
2233
2290
2252
2127
1941
1810
1811
1909
2047
2160
2185
2131
2021
1931
1922
1997
2128
2227
2237
2144
2000
1884
1855
1921
2064
2190
2242
2199
2080
1948
1877
1920
2062
2209
2275
2239
2135
2002
1922
1922
1999
2129
2239
2258
2188
2061
1928
1891
1972
2127
2271
2325
2275
2150
2021
1955
1968
2072
2207
2288
2295
2205
2085
1999
2000
2108
2260
2385
2403
2320
2178
2070
2034
2107
2222
2333
2385
2352
2235
2112
2045
2087
2187
2321
2421
2414
2303
2166
2076
2059
2141
2253
2316
2295
2198
2059
1922
1867
1936
2064
2165
2203
2133
1990
1841
1781
1825
1929
2067
2145
2139
2027
1869
1759
1758
1847
1969
2083
2106
2018
1883
1755
1709
1790
1923
2045
2082
2030
1900
1765
1687
1715
1842
2007
2134
2131
2022
1856
1728
1701
1789
1919
2007
2019
1969
1866
1761
1719
1795
1936
2079
2138
2083
1951
1810
1726
1744
1847
1977
2063
2058
1957
1833
1751
1755
1845
1978
2094
2130
2085
1927
1778
1707
1759
1900
2035
2113
2070
1943
1810
1755
1799
1908
2025
2107
2096
1975
1827
1721
1727
1811
1923
2015
2042
1983
1871
1771
1743
1797
1921
2047
2101
2038
1906
1751
1671
1707
1846
2014
2109
2081
1959
1795
1678
1675
1782
1938
2068
2115
2059
1926
1823
1791
1853
1968
2081
2117
2040
1910
1787
1718
1755
1871
2003
2081
2062
1962
1829
1747
1759
1858
1996
2116
2119
2015
1878
1776
1740
1789
1904
2017
2070
2019
1906
1792
1730
1765
1872
2015
2128
2154
2080
1937
1818
1791
1855
1969
2073
2086
1984
1827
1696
1693
1809
1968
2102
2140
2075
1947
1823
1786
1839
1946
2064
2149
2128
2010
1875
1808
1830
1940
2091
2213
2237
2139
1981
1847
1793
1842
1957
2081
2153
2103
1969
1845
1783
1827
1934
2067
2145
2125
2022
1876
1786
1781
1872
2001
2110
2113
2000
1862
1764
1746
1835
1970
2128
2209
2190
2093
1965
1874
1885
1986
2139
2244
2240
2165
2067
2006
2028
2143
2279
2366
2352
2197
1927
1658
1460
1402
1446
1535
1583
1489
1356
1232
1203
1307
1516
1767
1976
2080
2064
2001
1943
1939
2053
2219
2354
2373
2255
2066
1903
1815
1855
1969
2115
2208
2198
2126
2059
1993
1985
2059
2167
2227
2217
2106
1966
1890
1906
1989
2097
2169
2166
2098
1981
1895
1879
1968
2131
2270
2320
2268
2143
2000
1904
1933
2037
2186
2256
2225
2115
1989
1915
1919
2021
2183
2304
2307
2208
2063
1931
1887
1963
2119
2261
2331
2301
2192
2064
1968
1991
2108
2246
2338
2333
2227
2093
1999
2027
2149
2287
2384
2410
2346
2218
2096
2032
2096
2213
2337
2389
2344
2235
2132
2076
2102
2203
2316
2368
2350
2253
2127
2018
2002
2096
2199
2273
2277
2190
2032
1891
1840
1903
2026
2151
2198
2143
2013
1852
1746
1773
1867
1985
2064
2033
1927
1807
1738
1744
1822
1937
2063
2083
1999
1867
1744
1711
1775
1911
2035
2090
2047
1925
1789
1715
1757
1868
2005
2095
2064
1927
1751
1663
1672
1779
1930
2058
2097
2022
1904
1791
1755
1807
1924
2054
2108
2039
1917
1786
1712
1747
1872
2021
2109
2094
1968
1808
1718
1744
1845
1963
2058
2067
1970
1834
1740
1739
1821
1936
2047
2079
2000
1871
1738
1670
1727
1873
2031
2109
2103
2019
1878
1742
1697
1775
1926
2047
2081
2005
1867
1745
1718
1785
1893
1994
2047
2004
1900
1777
1710
1750
1878
2010
2091
2060
1936
1794
1715
1757
1902
2064
2150
2131
2002
1842
1712
1680
1777
1917
2042
2107
2064
1954
1846
1802
1828
1924
2033
2096
2082
1989
1863
1773
1767
1855
2013
2160
2187
2094
1961
1854
1821
1887
2001
2123
2157
2067
1905
1744
1664
1701
1840
2007
2127
2126
2015
1856
1754
1748
1861
2026
2162
2190
2080
1901
1749
1683
1744
1871
1989
2059
2017
1891
1767
1716
1792
1962
2144
2250
2215
2093
1903
1766
1745
1855
2026
2183
2230
2171
2053
1953
1943
2021
2116
2155
2077
1872
1618
1388
1264
1277
1366
1490
1589
1591
1535
1454
1408
1473
1634
1851
2059
2143
2112
2007
1903
1855
1906
2030
2154
2192
2154
2039
1937
1890
1920
2023
2129
2183
2160
2055
1911
1831
1835
1936
2081
2176
2195
2127
1998
1893
1867
1963
2119
2273
2343
2261
2107
1959
1871
1872
1968
2084
2150
2125
2014
1883
1800
1819
1943
2096
2213
2235
2176
2047
1920
1892
1962
2100
2247
2315
2282
2163
2001
1915
1953
2084
2235
2347
2337
2211
2060
1936
1926
2058
2224
2330
2337
2235
2109
2003
1998
2079
2209
2331
2388
2330
2201
2079
2015
2064
2203
2359
2438
2391
2260
2125
2032
2025
2122
2260
2368
2369
2271
2086
1905
1837
1895
2037
2176
2221
2138
1985
1823
1740
1783
1907
2047
2129
2127
2033
1890
1792
1776
1847
1959
2041
2038
1968
1849
1746
1722
1806
1951
2066
2096
2001
1856
1702
1625
1660
1787
1939
2041
2025
1914
1781
1680
1680
1777
1921
2036
2064
1975
1835
1711
1665
1759
1919
2064
2129
2094
1965
1835
1759
1775
1856
1983
2067
2066
1991
1873
1790
1791
1854
1954
2038
2027
1937
1808
1698
1691
1783
1915
2045
2110
2055
1915
1776
1712
1763
1867
1987
2080
2083
2009
1872
1779
1775
1854
1962
2054
2066
1983
1842
1717
1687
1770
1910
2053
2110
2065
1939
1815
1744
1775
1881
2010
2099
2074
1938
1793
1729
1745
1856
2000
2119
2133
2015
1853
1739
1729
1814
1947
2087
2149
2093
1959
1830
1773
1811
1930
2069
2150
2128
2032
1919
1817
1815
1923
2074
2193
2176
2038
1862
1721
1680
1767
1917
2047
2115
2054
1913
1785
1726
1771
1874
2019
2094
2047
1931
1792
1704
1725
1853
2019
2128
2133
2047
1904
1787
1755
1818
1943
2094
2153
2112
1994
1897
1845
1885
2013
2171
2278
2283
2190
2032
1911
1887
1945
2005
2018
1950
1779
1572
1372
1269
1294
1408
1589
1714
1728
1647
1575
1591
1705
1906
2106
2210
2203
2106
1957
1843
1847
1939
2078
2189
2205
2114
1962
1839
1808
1872
1996
2142
2224
2195
2083
1951
1879
1915
2038
2186
2255
2226
2119
1974
1866
1847
1929
2081
2191
2221
2154
2001
1870
1822
1884
2025
2188
2271
2226
2080
1922
1840
1885
2013
2157
2253
2239
2128
1984
1874
1883
2003
2160
2256
2255
2158
2015
1904
1875
1968
2137
2297
2349
2272
2126
1983
1925
1963
2086
2241
2335
2317
2226
2111
2032
2047
2150
2282
2397
2423
2350
2220
2113
2095
2160
2288
2393
2421
2351
2207
2066
1989
2032
2135
2255
2329
2275
2138
1983
1872
1877
1987
2149
2274
2283
2178
2022
1877
1792
1826
1959
2079
2119
2061
1930
1798
1732
1759
1857
1985
2081
2081
1974
1825
1710
1727
1825
1955
2045
2057
1968
1837
1725
1682
1752
1879
1993
2037
1997
1872
1744
1664
1706
1833
1986
2074
2047
1936
1789
1681
1693
1808
1967
2087
2112
2007
1859
1735
1697
1756
1871
1970
1984
1909
1808
1718
1695
1771
1901
2042
2115
2070
1947
1808
1702
1697
1782
1923
2038
2068
1994
1867
1762
1741
1803
1930
2033
2096
2067
1949
1799
1715
1743
1856
2015
2131
2121
1996
1829
1698
1664
1755
1921
2034
2054
1968
1834
1701
1664
1741
1892
2021
2059
2001
1869
1744
1687
1744
1872
2023
2123
2128
2005
1829
1695
1701
1808
1949
2073
2112
2056
1936
1808
1758
1839
1973
2113
2176
2140
2015
1879
1790
1790
1881
1977
2017
1983
1879
1759
1675
1676
1775
1925
2035
2064
1983
1850
1744
1714
1793
1939
2065
2106
2021
1882
1760
1698
1746
1867
2017
2117
2096
1986
1876
1821
1856
1946
2086
2199
2239
2167
2043
1951
1926
1985
2091
2160
2158
2003
1776
1553
1400
1361
1408
1462
1498
1490
1429
1360
1348
1441
1627
1846
2032
2112
2083
1998
1907
1890
1963
2077
2186
2224
2154
2007
1862
1785
1821
1947
2096
2178
2157
2034
1903
1809
1827
1943
2098
2215
2239
2165
2031
1903
1865
1925
2064
2202
2246
2203
2091
1984
1911
1935
2032
2143
2188
2147
2046
1909
1808
1807
1925
2115
2269
2303
2224
2080
1943
1890
1952
2096
2224
2271
2219
2102
1970
1898
1918
2032
2189
2274
2258
2166
2027
1949
1973
2081
2235
2351
2352
2283
2167
2043
1992
2059
2188
2338
2414
2370
2247
2138
2112
2150
2256
2376
2433
2383
2250
2104
2015
2028
2143
2305
2416
2416
2291
2118
1967
1904
1957
2091
2201
2241
2175
2032
1882
1808
1813
1904
2042
2134
2131
2000
1841
1744
1735
1825
1968
2069
2064
1951
1805
1694
1671
1745
1885
2015
2077
1998
1837
1699
1643
1674
1776
1902
1979
1997
1929
1801
1725
1712
1776
1895
2002
2035
1946
1801
1690
1661
1723
1849
1973
2027
1985
1885
1785
1741
1762
1857
1983
2038
1999
1875
1725
1654
1663
1758
1903
2028
2066
1968
1825
1718
1697
1770
1891
2014
2067
2023
1898
1755
1696
1749
1876
2016
2121
2093
1971
1818
1712
1722
1818
1942
2025
2039
1968
1849
1733
1682
1735
1871
1999
2054
1990
1872
1738
1646
1678
1809
1952
2047
2016
1901
1747
1683
1712
1815
1965
