1712
1663
1703
1824
1978
2083
2099
2001
1863
1759
1755
1854
1985
2079
2081
2002
1890
1795
1778
1855
1954
2033
2064
2000
1881
1766
1707
1749
1907
2074
2180
2175
2038
1872
1727
1680
1751
1874
1974
2001
1940
1840
1769
1743
1791
1894
1998
2033
1986
1871
1746
1687
1735
1866
2003
2082
2047
1945
1823
1722
1718
1803
1927
2046
2081
2000
1838
1629
1462
1415
1505
1671
1802
1826
1738
1600
1475
1435
1491
1627
1743
1707
1526
1245
958
755
720
807
919
1007
1033
1021
1031
1098
1264
1520
1778
1942
2002
2003
1975
1956
1983
2072
2177
2234
2215
2128
2007
1935
1948
2039
2160
2254
2256
2169
2032
1917
1898
1982
2129
2273
2341
2287
2167
2037
1979
2047
2171
2288
2332
2287
2163
2016
1933
1936
2034
2176
2283
2319
2256
2150
2036
2014
2074
2206
2322
2380
2335
2217
2095
2031
2067
2160
2271
2353
2349
2259
2128
2029
2037
2158
2325
2465
2496
2387
2245
2135
2111
2189
2315
2432
2481
2426
2288
2138
2047
2067
2180
2314
2386
2368
2267
2133
2035
2017
2096
2237
2352
2353
2240
2073
1951
1899
1937
2062
2189
2244
2179
2039
1903
1825
1859
1962
2080
2163
2146
2064
1934
1827
1804
1862
1969
2092
2134
2071
1936
1827
1783
1829
1917
2015
2060
1988
1882
1781
1731
1776
1903
2045
2118
2090
1968
1824
1725
1712
1823
1983
2096
2111
2013
1889
1819
1810
1863
1947
2025
2055
1991
1874
1761
1707
1742
1866
2026
2114
2096
1965
1819
1732
1741
1840
1974
2087
2105
2026
1902
1789
1738
1808
1941
2065
2123
2091
1968
1855
1776
1802
1936
2085
2149
2105
2006
1879
1787
1797
1873
1973
2039
2029
1936
1801
1712
1725
1825
1963
2080
2108
2032
1904
1781
1718
1776
1903
2041
2113
2063
1927
1786
1699
1741
1856
2015
2123
2102
2015
1902
1823
1808
1869
1984
2108
2179
2162
2059
1927
1856
1870
1926
1977
1959
1824
1591
1341
1152
1093
1162
1271
1366
1403
1366
1328
1330
1408
1605
1854
2071
2191
2174
2058
1907
1838
1871
1984
2112
2162
2103
1997
1886
1811
1829
1926
2067
2165
2171
2063
1920
1821
1815
1930
2114
2235
2246
2165
2038
1938
1904
1965
2069
2192
2243
2192
2093
2002
1954
1981
2071
2183
2265
2255
2160
2011
1899
1879
1957
2095
2233
2274
2197
2058
1923
1891
1971
2112
2244
2329
2306
2199
2068
1987
2021
2142
2289
2403
2409
2307
2163
2063
2046
2159
2310
2416
2416
2299
2128
1993
1943
2021
2145
2275
2352
2316
2195
2055
1970
1975
2064
2173
2230
2213
2115
1996
1909
1913
1998
2107
2164
2137
2010
1849
1733
1719
1803
1930
2033
2082
2053
1964
1866
1795
1817
1926
2062
2160
2112
1973
1821
1744
1788
1895
2032
2139
2145
2032
1872
1741
1694
1779
1918
2064
2107
2009
1871
1759
1712
1755
1863
2003
2117
2109
2000
1855
1770
1792
1892
2021
2098
2100
2009
1872
1744
1710
1789
1916
2028
2064
1994
1887
1787
1753
1814
1963
2126
2203
2141
1982
1803
1667
1666
1790
1949
2073
2097
2005
1872
1777
1776
1872
1999
2113
2159
2117
2011
1885
1818
1834
1936
2067
2157
2135
2032
1917
1835
1819
1882
1984
2081
2089
2002
1859
1753
1721
1779
1916
2064
2117
2077
1949
1819
1753
1777
1882
2000
2078
2058
1939
1810
1745
1775
1873
2000
2095
2094
2006
1878
1783
1790
1893
2047
2194
2256
2197
2085
1937
1835
1782
1747
1699
1618
1458
1265
1079
960
960
1089
1286
1472
1610
1638
1623
1625
1691
1840
2019
2175
2229
2177
2033
1890
1833
1875
1986
2112
2185
2150
2043
1937
1886
1904
2000
2142
2255
2290
2229
2112
2007
1965
1998
2087
2167
2188
2121
1985
1843
1776
1850
2002
2167
2271
2275
2185
2047
1943
1932
2000
2109
2187
2179
2090
1943
1851
1871
2004
2172
2307
2355
2320
2220
2107
2046
2097
2221
2320
2356
2307
2192
2061
1967
1989
2128
2281
2393
2413
2343
2226
2139
2146
2245
2411
2524
2522
2384
2186
2035
1987
2064
2187
2315
2368
2307
2170
2016
1927
1933
2015
2143
2237
2231
2133
1986
1866
1840
1921
2078
2184
2202
2105
1953
1820
1783
1851
1974
2121
2206
2172
2039
1901
1799
1825
1915
2030
2119
2112
1989
1815
1680
1655
1755
1931
2091
2146
2083
1936
1806
1744
1808
1957
2114
2208
2166
2000
1808
1685
1698
1818
1969
2073
2057
1953
1814
1727
1722
1809
1951
2075
2114
2041
1909
1791
1760
1830
1979
2112
2157
2086
1941
1774
1656
1663
1782
1948
2080
2098
2032
1920
1809
1769
1807
1897
1995
2029
1946
1812
1712
1697
1776
1901
2034
2128
2111
2013
1895
1854
1904
1984
2080
2123
2070
1947
1820
1729
1727
1808
1933
2023
2033
1961
1846
1751
1727
1782
1902
2010
2080
2039
1904
1771
1712
1771
1910
2058
2145
2126
2015
1885
1793
1785
1870
1994
2111
2159
2107
1973
1842
1812
1907
2064
2191
2234
2173
1997
1779
1587
1455
1418
1424
1394
1271
1090
917
851
923
1127
1399
1670
1840
1901
1859
1804
1822
1924
2083
2223
2288
2231
2105
1963
1870
1895
1987
2115
2199
2186
2081
1946
1871
1885
1989
2141
2245
2269
2211
2102
1983
1947
2009
2127
2229
2256
2183
2047
1914
1861
1950
2126
2294
2386
2342
2199
2029
1925
1935
2059
2198
2303
2304
2224
2109
2014
1980
2046
2194
2347
2416
2383
2272
2128
2015
2013
2111
2256
2364
2367
2303
2195
2112
2119
2218
2349
2448
2459
2390
2263
2149
2135
2229
2377
2528
2595
2503
2335
2155
2047
2091
2224
2383
2467
2445
2314
2113
1947
1905
1988
2112
2201
2192
2098
1957
1860
1856
1935
2055
2176
2198
2130
2014
1905
1872
1926
2054
2157
2167
2096
1967
1808
1727
1757
1897
2077
2212
2223
2120
1940
1776
1704
1750
1889
2022
2096
2047
1934
1830
1789
1839
1947
2091
2154
2096
1953
1802
1709
1739
1875
2054
2171
2159
2026
1851
1721
1702
1793
1930
2062
2101
2019
1872
1749
1706
1748
1857
1983
2047
2012
1904
1802
1744
1771
1882
2041
2160
2171
2064
1895
1766
1754
1843
1961
2076
2110
2038
1905
1781
1717
1780
1918
2065
2149
2112
1995
1863
1785
1808
1913
2043
2160
2177
2081
1922
1783
1734
1800
1936
2062
2075
1981
1840
1729
1705
1784
1930
2078
2134
2077
1953
1834
1760
1776
1867
1995
2096
2094
1981
1823
1714
1723
1849
2019
2165
2227
2161
2028
1919
1914
2023
2177
2299
2322
2231
2061
1871
1723
1648
1616
1617
1597
1456
1239
1031
883
870
1014
1276
1523
1683
1727
1711
1693
1738
1843
2000
2139
2205
2151
2013
1890
1837
1909
2063
2214
2318
2288
2160
1988
1855
1845
1940
2103
2227
2241
2131
1942
1795
1777
1898
2071
2208
2262
2207
2099
1984
1919
1957
2063
2176
2255
2225
2099
1947
1837
1850
1966
2144
2287
2319
2243
2117
2011
1971
2030
2163
2269
2283
2209
2108
2033
1994
2023
2133
2288
2382
2361
2256
2112
2007
2013
2115
2261
2379
2419
2371
2259
2151
2096
2140
2260
2393
2437
2371
2236
2082
1992
2031
2149
2289
2351
2295
2193
2083
1991
1974
2032
2105
2161
2155
2059
1894
1776
1770
1879
2018
2119
2155
2093
1955
1831
1775
1825
1965
2081
2113
2087
1991
1847
1744
1744
1872
2047
2148
2137
2064
1917
1750
1671
1729
1875
2013
2058
2000
1872
1726
1648
1712
1863
2023
2128
2113
1990
1813
1682
1680
1798
1968
2099
2119
2030
1845
1658
1596
1664
1811
1986
2110
2096
1969
1798
1685
1698
1808
1943
2061
2077
1984
1828
1725
1731
1824
1962
2068
2062
1941
1806
1727
1726
1825
1954
2047
2087
2043
1927
1791
1712
1743
1866
2022
2131
2129
2031
1873
1747
1725
1808
1969
2118
2144
2045
1898
1783
1744
1787
1888
2000
2032
1968
1838
1744
1695
1738
1869
2017
2111
2063
1915
1776
1680
1665
1749
1906
2037
2077
2017
1906
1829
1804
1851
1950
2084
2135
2087
1943
1808
1747
1825
2018
2185
2261
2240
2128
1994
1872
1805
1762
1737
1665
1534
1330
1099
914
866
978
1237
1520
1708
1759
1718
1650
1646
1728
1886
2055
2155
2161
2095
1951
1856
1857
1968
2121
2229
2240
2167
2029
1909
1901
1990
2149
2288
2345
2288
2146
1978
1919
1936
2034
2165
2223
2177
2062
1923
1867
1904
2022
2179
2279
2247
2128
1993
1890
1870
1968
2145
2294
2320
2229
2069
1946
1939
2053
2204
2335
2405
2368
2256
2118
2006
2007
2109
2250
2352
2380
2316
2213
2119
2099
2151
2263
2366
2417
2361
2233
2107
2059
2110
2237
2389
2465
2439
2315
2176
2081
2075
2166
2287
2359
2342
2233
2096
1999
2003
2089
2205
2305
2294
2171
1982
1839
1773
1825
1946
2078
2138
2086
1964
1847
1785
1825
1936
2068
2155
2128
2029
1886
1781
1776
1854
1982
2111
2142
2061
1885
1724
1666
1733
1879
2056
2154
2118
1969
1806
1708
1719
1822
1956
2047
2039
1954
1810
1711
1725
1834
1968
2086
2119
2064
1935
1793
1735
1776
1876
1965
2005
1968
1874
1773
1701
1731
1862
2013
2106
2067
1938
1791
1698
1703
1789
1911
2017
2051
1984
1879
1782
1749
1801
1921
2062
2128
2090
1982
1866
1807
1847
1967
2089
2147
2108
1984
1830
1711
1682
1757
1898
2026
2066
1984
1861
1760
1715
1770
1887
2005
2064
2003
1871
1754
1695
1734
1842
1982
2074
2047
1953
1836
1747
1751
1855
2013
2160
2211
2150
1993
1826
1744
1800
1964
2146
2256
2224
2079
1895
1733
1637
1598
1589
1535
1422
1254
1091
979
996
1149
1395
1635
1774
1773
1697
1664
1695
1802
1967
2127
2202
2161
2032
1933
1891
1936
2058
2192
2245
2173
2028
1881
1794
1810
1907
2057
2189
2208
2119
1969
1826
1802
1898
2065
2219
2277
2227
2102
1947
1873
1916
2046
2205
2303
2276
2139
1988
1902
1895
1978
2112
2209
2220
2158
2057
1981
1979
2047
2143
2224
2272
2230
2112
1990
1951
2000
2157
2315
2405
2402
2295
2152
2059
2059
2160
2317
2448
2453
2331
2158
2003
1971
2064
2195
2334
2384
2325
2213
2113
2097
2160
2273
2394
2451
2384
2227
2055
1911
1906
2023
2178
2277
2266
2147
1990
1864
1839
1910
2063
2199
2240
2162
2017
1872
1815
1862
1975
2085
2123
2047
1903
1763
1693
1744
1872
2033
2149
2147
2039
1896
1777
1736
1792
1923
2062
2106
2034
1909
1783
1732
1782
1879
2000
2071
2014
1872
1747
1682
1735
1862
2029
2139
2113
1987
1826
1719
1735
1847
1995
2101
2101
1999
1829
1686
1622
1687
1822
1967
2055
2037
1953
1827
1745
1766
1854
1983
2087
2085
1979
1851
1754
1748
1833
1947
2064
2107
2035
1891
1727
1645
1696
1836
1985
2065
2020
1923
1794
1685
1687
1791
1947
2065
2062
1957
1815
1698
1693
1779
1925
2061
2097
2027
1905
1813
1774
1819
1925
2042
2105
2074
1954
1819
1758
1803
1945
2135
2257
2274
2187
2026
1888
1831
1843
1867
1852
1764
1600
1355
1118
964
947
1059
1255
1471
1587
1601
1578
1587
1677
1871
2083
2223
2246
2171
2052
1938
1914
1984
2126
2249
2271
2191
2059
1936
1910
1984
2129
2265
2304
2245
2128
1999
1923
1950
2073
2227
2327
2305
2198
2069
1977
1984
2081
2205
2304
2314
2232
2089
1953
1902
1956
2096
2234
2309
2282
2186
2080
2032
2096
2223
2350
2404
2384
2311
2225
2145
2124
2215
2367
2478
2495
2416
2281
2171
2149
2234
2383
2527
2581
2531
2396
2240
2141
2147
2236
2365
2455
2431
2326
2207
2145
2137
2214
2343
2471
2492
2389
2207
2065
2032
2098
2219
2304
2317
2240
2112
1995
1955
1980
2064
2170
2239
2192
2043
1856
1738
1741
1840
1971
2107
2140
2082
1967
1882
1863
1949
2106
2224
2225
2128
1955
1776
1662
1715
1879
2045
2151
2128
2016
1863
1758
1764
1870
2006
2098
2104
2019
1867
1747
1744
1819
1950
2075
2112
2041
1923
1808
1755
1798
1933
2105
2189
2155
2041
1889
1779
1761
1840
1978
2079
2071
1972
1845
1744
1743
1824
1978
2109
2154
2096
1968
1856
1808
1857
1979
2112
2192
2159
2011
1858
1763
1787
1911
2081
2185
2175
2067
1905
1775
1733
1808
1936
2079
2113
2027
1879
1744
1702
1790
1966
2112
2171
2118
1970
1808
1707
1722
1841
1986
2090
2111
2053
1937
1855
1855
1940
2099
2257
2314
2247
2133
2022
1954
1930
1947
1927
1839
1654
1423
1205
1091
1088
1210
1389
1535
1605
1571
1509
1499
1616
1783
1995
2175
2261
2243
2131
1987
1915
1950
2063
2169
2235
2228
2121
1967
1856
1846
1933
2064
2160
2174
2080
1920
1829
1833
1951
2161
2321
2378
2306
2167
2032
1952
1963
2054
2187
2279
2247
2128
1998
1913
1919
2005
2153
2263
2275
2175
2029
1942
1973
2081
2207
2287
2299
2252
2167
2082
2064
2123
2256
2404
2480
2432
2302
2157
2082
2127
2246
2384
2467
2442
2339
2231
2145
2128
2193
2320
2432
2451
2365
2223
2087
2023
2098
2243
2383
2446
2397
2256
2081
1966
1968
2078
2239
2352
2350
2234
2067
1935
1915
1981
2101
2199
2195
2109
1968
1856
1806
1872
2000
2119
2179
2128
1999
1849
1763
1781
1900
2044
2137
2115
2003
1860
1761
1767
1870
2016
2144
2197
2157
2015
1875
1825
1859
1971
2083
2112
2064
1938
1827
1781
1813
1932
2052
2127
2115
2018
1883
1761
1743
1835
1994
2128
2179
2113
1967
1839
1789
1839
1957
2079
2127
2073
1934
1797
1743
1824
2000
2163
2241
2193
2057
1866
1728
1713
1796
1937
2045
2069
2015
1903
1776
1726
1780
1906
2039
2113
2085
1967
1837
1765
1795
1904
2038
2123
2107
1986
1812
1688
1680
1775
1911
2032
2091
2037
1904
1792
1763
1866
2035
2190
2256
2213
2064
1877
1788
1843
2000
2145
2163
2023
1761
1457
1230
1121
1119
1225
1379
1458
1449
1410
1417
1474
1618
1823
2011
2114
2102
1979
1851
1795
1868
2015
2160
2221
2195
2091
1939
1818
1801
1904
2065
2211
2244
2176
2032
1889
1826
1885
2028
2161
2223
2189
2075
1915
1840
1863
1951
2081
2163
2183
2091
1979
1910
1938
2071
2223
2319
2309
2190
2009
1872
1872
1989
2163
2303
2375
2330
2179
2033
1967
2005
2122
2249
2332
2321
2214
2073
1974
2023
2170
2358
2495
2497
2380
2201
2047
2017
2106
2255
2402
2460
2384
2211
2012
1898
1920
2060
2234
2363
2359
2235
2076
1968
1957
2038
2160
2243
2223
2112
1965
1855
1830
1895
2021
2134
2169
2111
1961
1822
1757
1815
1953
2081
2160
2131
2007
1869
1775
1767
1854
1968
2043
2043
1955
1815
1699
1699
1798
1974
2160
2256
2223
2039
1855
1728
1744
1858
2000
2079
2060
1936
1815
1717
1710
1815
1962
2047
2053
1941
1789
1669
1682
1807
1963
2089
2120
2032
1886
1735
1647
1694
1827
1969
2054
2025
1936
1821
1747
1749
1839
1968
2083
2112
2029
1870
1726
1691
1783
1931
2054
2086
2010
1872
1721
1647
1681
1822
1974
2033
1978
1829
1687
1634
1678
1811
1975
2106
2098
1951
1782
1675
1680
1770
1931
2079
2119
2025
1879
1775
1759
1822
1936
2078
2163
2164
2041
1878
1767
1762
1856
1983
2053
1968
1761
1499
1281
1187
1229
1354
1497
1567
1516
1413
1319
1314
1445
1691
1923
2070
2086
1997
1868
1776
1777
1869
1995
2096
2087
1994
1855
1745
1757
1867
2015
2127
2146
2071
1931
1808
1778
1835
1977
2144
2256
2211
2069
1902
1797
1821
1916
2030
2113
2106
2000
1867
1797
1828
1937
2082
2193
2194
2103
1966
1843
1791
1840
1968
2113
2202
2192
2097
1989
1943
1972
2078
2214
2303
2261
2142
1996
1893
1891
2011
2225
2394
2418
2320
2169
2030
1986
2046
2190
2337
2407
2359
2240
2110
1999
1990
2087
2211
2307
2299
2183
2010
1865
1846
1926
2072
2185
2213
2129
1971
1823
1742
1781
1916
2055
2123
2079
1945
1831
1783
1808
1926
2070
2155
2117
1972
1777
1678
1703
1826
1983
2112
2131
2069
1933
1786
1712
1739
1850
1983
2045
1983
1840
1694
1620
1680
1857
2068
2203
2224
2107
1920
1789
1765
1834
1978
2111
2118
1984
1803
1668
1652
1727
1863
1974
2000
1942
1847
1719
1664
1729
1893
2037
2091
2029
1913
1774
1677
1658
1729
1871
2000
2063
1986
1839
1711
1677
1761
1899
2031
2073
2015
1869
1725
1645
1680
1801
1941
2033
2041
1950
1792
1671
1693
1793
1931
2062
2101
2001
1837
1713
1712
1809
1958
2085
2102
2015
1867
1726
1648
1677
1798
1951
2067
2107
2063
1983
1919
1918
2011
2155
2247
2223
2047
1782
1503
1332
1291
1353
1435
1462
1383
1235
1136
1147
1279
1502
1790
1999
2081
1999
1865
1772
1789
1898
2047
2155
2114
1984
1826
1706
1706
1827
2003
2145
2176
2112
1970
1837
1770
1810
1956
2115
2199
2172
2038
1883
1776
1781
1893
2047
2174
2189
2107
1953
1845
1823
1906
2063
2207
2263
2214
2096
1979
1943
1974
2035
2144
2214
2182
2068
1930
1851
1881
1993
2122
2221
2240
2173
2037
1913
1882
1963
2106
2238
2271
2213
2109
1997
1955
2012
2167
2317
2405
2394
2306
2167
2065
2065
2159
2281
2367
2345
2225
2080
1967
1942
1997
2113
2223
2247
2167
2011
1865
1799
1840
1975
2107
2173
2129
2011
1895
1815
1840
1933
2030
2111
2109
2000
1839
1699
1638
1673
1799
1920
1971
1939
1861
1791
1778
1842
1980
2110
2167
2112
1965
1808
1710
1727
1846
2002
2128
2119
1991
1835
1725
1710
1796
1939
2067
2113
2042
1878
1699
1595
1621
1777
1980
2103
2092
1983
1862
1799
1823
1911
2010
2074
2027
1904
1751
1632
1626
1723
1903
2032
2069
1987
1840
1718
1674
1730
1872
2008
2080
2034
1914
1785
1740
1795
1921
2078
2192
2197
2085
1921
1792
1748
1799
1902
1995
2003
1926
1779
1631
1564
1611
1761
1931
2043
2042
1947
1802
1721
1723
1827
1957
2067
2068
1971
1837
1719
1703
1783
1926
2068
2109
2038
1917
1797
1759
1839
2021
2211
2310
2259
2101
1920
1794
1755
1817
1906
1931
1826
1615
1374
1198
1127
1155
1282
1443
1570
1600
1567
1527
1571
1698
1885
2057
2127
2095
1990
1887
1839
1881
1985
2122
2197
2166
2027
1887
1791
1807
1920
2085
2201
2224
2135
1965
1822
1797
1895
2064
2197
2243
2178
2032
1878
1808
1849
1951
2097
2193
2178
2064
1899
1808
1823
1926
2089
2201
2217
2156
2032
1934
1917
2004
2181
2349
2414
2331
2181
2021
1913
1926
2060
2206
2287
2260
2164
2039
1968
2000
2135
2295
2409
2423
2345
2220
2113
2078
2150
2293
2413
2430
2331
2155
2007
1946
2003
2144
2295
2375
2354
2226
2061
1918
1904
2003
2154
2267
2289
2208
2058
1915
1855
1906
2055
2187
2207
2114
1941
1787
1743
1817
1962
2118
2191
2128
1984
1804
1664
1643
1737
1879
2014
2041
1958
1825
1709
1683
1776
1938
2096
2151
2090
1949
1801
1759
1813
1936
2055
2111
2064
1916
1762
1663
1669
1774
1926
2032
2047
1967
1840
1733
1706
1786
1923
2038
2082
2003
1862
1728
1683
1771
1938
2114
2208
2171
2023
1846
1735
1733
1815
1946
2059
2064
1971
1840
1741
1739
1815
1968
2127
2161
2047
1872
1717
1662
1718
1869
2045
2147
2138
2013
1855
1749
1757
1871
2029
2149
2151
2035
1861
1727
1723
1831
1987
2133
2187
2125
1968
1809
1742
1790
1920
2065
2140
2131
2012
1857
1765
1792
1935
2112
2227
2235
2138
1968
1823
1783
1857
1998
2111
2129
2057
1914
1793
1753
1837
1975
2096
2137
2096
1978
1855
1747
1760
1884
2042
2163
2154
2031
1878
1747
1730
1818
1963
2081
2103
2032
1893
1771
1734
1831
2013
2199
2288
2263
2161
2028
1957
1991
2123
2287
2363
2288
2096
1830
1602
1467
1471
1555
1602
1556
1449
1296
1206
1237
1395
1637
1899
2086
2141
2066
1948
1857
1866
1969
2128
2245
2254
2141
1961
1811
1802
1901
2064
2206
2269
2197
2060
1938
1906
1995
2138
2268
2335
2275
2119
1925
1808
1808
1931
2064
2154
2171
2113
2006
1923
1925
2028
2177
2288
2320
2239
2102
1998
1950
1990
2122
2253
2305
2256
2133
2002
1935
1936
2047
2203
2331
2349
2275
2160
2068
2094
2195
2338
2448
2451
2343
2176
2014
1969
2039
2201
2381
2460
2409
2259
2101
2018
2039
2157
2297
2414
2416
2327
2190
2077
2075
2142
2267
2370
2371
2235
2038
1878
1838
1903
2063
2217
2274
2214
2077
1926
1831
1840
1955
2128
2241
2220
2103
1924
1787
1776
1873
2036
2175
2187
2081
1920
1799
1750
1809
1935
2069
2127
2067
1927
1776
1703
1758
1905
2093
2205
2182
2029
1845
1735
1733
1843
2000
2128
2155
2081
1922
1786
1738
1830
1986
2155
2203
2129
1968
1807
1723
1767
1870
1964
2028
2001
1883
1755
1680
1715
1840
1995
2108
2113
2000
1838
1718
1691
1782
1945
2083
2127
2037
1904
1777
1727
1771
1898
2047
2135
2107
1975
1809
1685
1689
1807
1943
2047
2092
2010
1859
1715
1655
1729
1875
2002
2066
2006
1891
1775
1711
1754
1871
2011
2101
2069
1943
1803
1713
1744
1863
2003
2115
2141
2019
1861
1713
1660
1712
1846
1985
2067
2032
1902
1763
1666
1695
1819
1984
2096
2086
1968
1830
1723
1735
1869
2027
2143
2165
2112
1968
1817
1744
1792
1919
2012
2033
1943
1811
1699
1665
1746
1909
2054
2119
2066
1939
1815
1754
1778
1901
2072
2175
2167
2080
1924
1786
1746
1813
1952
2084
2114
2032
1872
1727
1693
1789
1943
2113
2186
2112
1937
1778
1694
1713
1811
1947
2074
2081
1967
1798
1680
1674
1772
1931
2086
2128
2055
1919
1805
1806
1915
2081
2233
2319
2272
2120
1965
1869
1834
1843
1865
1843
1731
1503
1241
1043
989
1088
1298
1525
1675
1709
1669
1626
1649
1745
1913
2102
2222
2217
2100
1968
1889
1866
1904
2013
2096
2107
2009
1862
1748
1732
1814
1984
2166
2221
2159
2014
1875
1820
1873
2017
2175
2258
2214
2045
1867
1775
1808
1945
2118
2219
2207
2096
1927
1808
1799
1892
2059
2214
2272
2224
2064
1902
1836
1914
2076
2246
2342
2320
2192
2037
1948
1967
2059
2182
2260
2240
2119
1968
1872
1873
1989
2159
2302
2346
2285
2144
2001
1945
2015
2176
2333
2401
2322
2160
1991
1904
1943
2084
2242
2347
2329
2218
2067
1943
1907
1982
2105
2195
2206
2141
2005
1855
1787
1836
1952
2083
2129
2065
1911
1786
1734
1798
1950
2113
2208
2173
2007
1811
1660
1664
1791
1970
2123
2178
2083
1905
1793
1750
1810
1932
2068
2128
2064
1917
1749
1662
1695
1829
1987
2096
2091
1965
1799
1681
1691
1813
1998
2146
2179
2085
1930
1779
1729
1777
1904
2019
2066
2002
1869
1738
1651
1694
1842
2021
2124
2069
1927
1777
1683
1683
1776
1915
2067
2106
2046
1902
1759
1738
1791
1904
2027
2064
1990
1856
1738
1682
1728
1890
2085
2152
2096
1968
1824
1725
1716
1807
1953
2064
2058
1967
1840
1701
1654
1712
1872
2027
2099
2055
1911
1756
1690
1746
1907
2070
2156
2112
1975
1808
1668
1654
1759
1936
2084
2095
2001
1846
1708
1679
1764
1911
2053
2097
2027
1879
1728
1667
1725
1866
2035
2160
2160
2056
1915
1808
1807
1909
2061
2160
2161
2063
1889
1775
1744
1814
1968
2126
2163
2073
1893
1740
1670
1728
1874
2029
2115
2108
1984
1838
1741
1733
1825
1955
2055
2071
1983
1840
1712
1681
1776
1943
2111
2171
2112
1981
1870
1842
1942
2126
2289
2373
2304
2112
1866
1652
1519
1519
1599
1657
1616
1485
1317
1232
1278
1454
1691
1893
1989
1968
1874
1779
1764
1855
2015
2180
2272
2257
2124
1968
1875
1872
1956
2075
2176
2177
2068
1904
1791
1778
1897
2072
2203
2242
2163
1995
1867
1824
1897
2034
2185
2258
2215
2084
1935
1857
1878
1999
2161
2270
2240
2115
1967
1872
1874
1973
2134
2257
2283
2240
2153
2059
1983
1971
2043
2154
2234
2195
2079
1948
1895
1941
2090
2240
2346
2347
2258
2128
2023
2011
2102
2244
2375
2416
2361
2222
2078
2006
2071
2207
2349
2411
2359
2234
2064
1958
1967
2090
2254
2384
2381
2260
2097
1984
1979
2062
2192
2315
2331
2226
2039
1873
1813
1881
2034
2189
2255
2193
2037
1877
1787
1798
1915
2064
2150
2128
2007
1863
1786
1810
1910
2062
2160
2172
2075
1910
1788
1776
1840
1983
2128
2207
2160
1986
1814
1714
1725
1835
1977
2083
2089
1973
1833
1723
1728
1847
2002
2128
2155
2075
1923
1771
1711
1776
1905
2047
2133
2097
1957
1803
1697
1723
1858
2042
2166
2145
2007
1840
1725
1721
1824
1973
2096
2107
2016
1868
1745
1719
1791
1936
2074
2112
2054
1924
1786
1711
1718
1810
1963
2077
2074
1968
1828
1730
1731
1835
1972
2103
2128
2032
1877
1728
1684
1791
1969
2155
2245
2207
2023
1823
1713
1730
1841
1981
2091
2095
1983
1835
1742
1757
1877
2047
2195
2224
2129
1963
1808
1764
1821
1983
2161
2249
2194
2030
1840
1741
1795
1956
2134
2233
2171
1975
1781
1638
1636
1775
1955
2083
2101
2002
1861
1761
1734
1814
1966
2112
2182
2131
1970
1792
1701
1760
1919
2089
2172
2128
2002
1868
1822
1905
2073
2253
2369
2367
2249
2071
1899
1798
1803
1856
1880
1833
1687
1484
1274
1133
1109
1239
1418
1571
1648
1631
1579
1583
1701
1894
2103
2256
2299
2238
2096
1940
1863
1884
2005
2161
2219
2163
2003
1846
1777
1847
2019
2196
2305
2294
2161
1987
1887
1886
1975
2134
2279
2305
2210
2059
1890
1835
1932
2111
2269
2329
2255
2103
1950
1899
1950
2096
2247
2342
2338
2240
2117
2032
2045
2159
2302
2399
2378
2261
2127
2043
2039
2157
2305
2426
2448
2364
2227
2112
2071
2135
2288
2453
2559
2538
2405
2240
2129
2141
2266
2438
2546
2531
2431
2288
2164
2128
2228
2404
2555
2611
2519
2302
2093
1971
1986
2111
2269
2362
2334
2206
2043
1927
1917
2002
2125
2223
2223
2129
1983
1857
1835
1926
2096
2238
2293
2209
2046
1895
1844
1898
2035
2190
2267
2218
2095
1921
1789
1777
1878
2032
2146
2154
2054
1886
1778
1773
1871
2023
2158
2192
2117
1984
1841
1775
1821
1965
2110
2187
2139
2004
1865
1781
1794
1909
2080
2207
2213
2093
1920
1792
1771
1869
2047
2198
2219
2127
1968
1830
1767
1807
1919
2055
2135
2112
1989
1845
1751
1776
1887
2017
2131
2143
2046
1898
1782
1782
1885
2058
2192
2219
2133
1984
1845
1781
1825
1951
2096
2167
2139
2000
1845
1741
1770
1891
2060
2179
2167
2035
1879
1749
1735
1838
1998
2131
2170
2091
1959
1836
1776
1824
1959
2109
2176
2144
2034
1899
1807
1821
1935
2073
2173
2183
2078
1919
1791
1790
1905
2086
2227
2258
2177
2029
1874
1798
1823
1936
2069
2115
2062
1920
1778
1696
1744
1875
2041
2170
2165
2045
1870
1744
1762
1882
2065
2206
2214
2126
1967
1818
1771
1834
1957
2087
2140
2098
1973
1846
1783
1840
2010
2209
2319
2288
2163
2014
1921
1935
2038
2142
2125
1971
1726
1449
1232
1138
1175
1314
1467
1565
1571
1511
1459
1502
1643
1842
2047
2179
2195
2107
1954
1855
1870
1988
2160
2279
2281
2170
2000
1867
1834
1929
2099
2250
2305
2241
2085
1911
1813
1859
2015
2185
2286
2267
2143
1979
1879
1886
1979
2129
2245
2271
2189
2055
1932
1891
1946
2090
2231
2302
2249
2113
1970
1914
1966
2091
2226
2321
2309
2215
2094
1978
1966
2047
2193
2321
2354
2267
2140
2032
2027
2105
2282
2448
2513
2446
2271
2112
2031
2093
2227
2389
2496
2475
2336
2144
1999
1975
2098
2288
2449
2495
2407
2229
2064
1954
2011
2158
2299
2327
2236
2090
1937
1872
1920
2047
2186
2247
2198
2063
1890
1790
1815
1943
2114
2229
2239
2142
1954
1789
1718
1792
1953
2100
2149
2070
1904
1770
1711
1787
1946
2112
2190
2160
1996
1804
1684
1694
1815
1970
2089
2084
1968
1817
1711
1733
1872
2069
2201
2206
2096
1911
1734
1648
1703
1845
2011
2111
2095
1977
1833
1744
1779
1904
2057
2161
2145
2013
1829
1680
1649
1727
1893
2054
2097
2008
1862
1746
1712
1769
1893
2023
2100
2057
1925
1795
1702
1715
1825
1987
2095
2078
1946
1760
1622
1615
1728
1919
2065
2127
2065
1925
1803
1750
1802
1910
2032
2078
2006
1889
1776
1707
1728
1856
2000
2099
2085
1963
1792
1691
1712
1825
1990
2114
2128
2028
1877
1751
1709
1767
1915
2085
2147
2105
1975
1819
1709
1715
1823
1967
2078
2074
1958
1783
1658
1651
1775
1953
2107
2139
2053
1879
1725
1664
1733
1913
2107
2224
2201
2053
1853
1713
1727
1852
1991
2089
2060
1930
1767
1658
1686
1839
2064
2256
2319
2238
2080
1925
1846
1840
1874
1904
1837
1665
1415
1177
1030
1018
1159
1395
1610
1712
1686
1616
1597
1689
1872
2070
2192
2189
2106
1971
1845
1791
1845
2000
2158
2233
2179
2043
1903
1833
1902
2080
2263
2367
2343
2199
1997
1849
1819
1905
2070
2207
2247
2187
2047
1911
1858
1921
2087
2246
2315
2261
2128
1959
1846
1874
2035
2226
2352
2349
2231
2066
1929
1916
2005
2158
2282
2315
2240
2087
1951
1925
2017
2192
2364
2441
2374
2220
2047
1967
2026
2206
2389
2512
2503
2375
2187
2039
2032
2141
2294
2416
2416
2303
2157
2019
1982
2053
2205
2349
2413
2373
2259
2119
2031
2071
2174
2303
2351
2300
2155
1960
1798
1767
1844
2003
2150
2179
2085
1931
1808
1765
1825
1966
2129
2192
2139
1986
1835
1744
1773
1893
2059
2182
2189
2062
1868
1746
1754
1863
2030
2155
2165
2055
1885
1754
1723
1793
1929
2069
2123
2074
1934
1767
1664
1690
1811
1973
2067
2027
1885
1731
1642
1661
1779
1958
2096
2112
2001
1831
1693
1670
1776
1930
2065
2102
2017
1867
1705
1623
1670
1830
2000
2117
2110
1987
1814
1681
1671
1763
1917
2039
2061
1961
1820
1712
1680
1744
1871
2001
2093
2046
1904
1757
1694
1734
1847
1977
2063
2030
1915
1773
1680
1697
1820
1996
2142
2161
2044
1872
1734
1707
1793
1946
2082
2118
2033
1870
1706
1616
1655
1801
1979
2105
2109
1998
1831
1680
1663
1744
1873
1975
1994
1923
1797
1698
1680
1765
1915
2032
2080
2029
1910
1770
1699
1755
1904
2078
2197
2215
2111
1958
1842
1835
1913
2030
2096
2025
1840
1586
1357
1245
1258
1339
1424
1456
1395
1317
1278
1312
1456
1679
1901
2074
2126
2037
1898
1801
1815
1934
2077
2171
2150
2026
1862
1726
1715
1840
2038
2209
2251
2174
2032
1904
1871
1943
2090
2224
2301
2260
2114
1933
1797
1788
1903
2091
2217
2234
2162
2032
1937
1919
1961
2064
2164
2191
2130
2002
1899
1882
1957
2103
2238
2317
2288
2151
1969
1863
1901
2016
2203
2353
2385
2312
2159
2037
2014
2085
2208
2310
2346
2272
2154
2057
2018
2107
2265
2416
2479
2416
2268
2101
2012
2038
2161
2320
2429
2425
2302
2135
2017
2000
2103
2256
2355
2357
2273
2125
1977
1921
1985
2126
2229
2250
2164
2000
1845
1757
1767
1887
2053
2177
2183
2064
1874
1717
1686
1765
1927
2090
2135
2082
1945
1817
1774
1825
1969
2119
2187
2148
2007
1845
1776
1813
1933
2065
2135
2115
2000
1858
1745
1733
1825
1973
2119
2177
2126
1968
1811
1741
1776
1904
2018
2045
1975
1825
1685
1627
1681
1840
2006
2117
2110
1986
1810
1674
1632
1706
1854
1994
2043
1985
1859
1744
1723
1798
1947
2099
2191
2142
1973
1815
1735
1766
1905
2083
2191
2192
2109
1967
1872
1846
1895
2005
2133
2186
2128
1989
1863
1795
1820
1937
2093
2179
2150
2031
1882
1794
1813
1914
2055
2147
2130
2022
1871
1751
1742
1841
1999
2126
2144
2061
1917
1791
1761
1843
1987
2134
2184
2119
1979
1841
1779
1830
1960
2134
2234
2187
2032
1814
1646
1611
1711
1881
2047
2125
2086
1981
1882
1862
1949
2106
2233
2224
2083
1853
1589
1367
1271
1307
1402
1450
1390
1232
1078
1003
1053
1255
1534
1797
1940
1965
1903
1839
1861
1989
2142
2240
2243
2151
1994
1846
1777
1826
1959
2096
2171
2132
2001
1859
1767
1799
1943
2122
2239
2256
2160
1984
1827
1776
1853
2014
2179
2256
2205
2044
1875
1792
1845
2001
2192
2332
2343
2226
2064
1936
1909
1988
2128
2239
2253
2163
2032
1942
1950
2047
2202
2365
2415
2348
2214
2077
2031
2109
2228
2355
2419
2385
2291
2175
2098
2124
2254
2429
2559
2559
2460
2275
2104
2042
2112
2262
2415
2475
2416
2286
2135
2085
2125
2233
2379
2469
2422
2266
2081
1949
1936
2014
2143
2238
2227
2106
1950
1806
1771
1840
1968
2105
2175
2129
1997
1853
1778
1828
1968
2133
2243
2217
2064
1865
1729
1716
1833
1985
2112
2128
2031
1871
1741
1731
1839
1993
2133
2171
2082
1916
1770
1705
1737
1855
1979
2054
2034
1923
1797
1698
1706
1803
1955
2087
2098
1989
1835
1729
1722
1824
1979
2119
2161
2085
1925
1766
1680
1713
1840
1990
2095
2080
1953
1799
1707
1728
1827
1958
2064
2067
1990
1846
1725
1718
1817
1973
2116
2155
2080
1914
1754
1693
1750
1885
2021
2095
2047
1931
1805
1729
1775
1911
2064
2160
2159
2058
1887
1744
1732
1853
2021
2164
2198
2128
1984
1847
1785
1851
1973
2128
2224
2191
2031
1841
1730
1728
1841
1995
2119
2124
2000
1849
1744
1728
1830
1999
2147
2189
2106
1934
1775
1711
1782
1950
2114
2178
2119
1985
1848
1776
1826
1959
2146
2289
2335
2271
2160
2054
2022
2070
2128
2133
2027
1815
1535
1299
1169
1141
1216
1329
1418
1424
1360
1313
1328
1476
1732
1998
2220
2303
2240
2105
1982
1935
1974
2101
2224
2256
2201
2073
1955
1918
1984
2118
2268
2339
2289
2154
1995
1893
1922
2083
2274
2384
2320
2128
1939
1856
1863
1962
2126
2263
2292
2251
2166
2057
1969
1971
2039
2141
2202
2160
2031
1927
1911
2021
2187
2326
2402
2352
2204
2032
1910
1936
2096
2263
2365
2366
2257
2117
2034
2047
2147
2278
2401
2413
2342
2197
2045
1989
2037
2138
2244
2325
2319
2226
2111
2016
2039
2190
2347
2428
2416
2326
2176
2005
1910
1947
2070
2227
2329
2284
2143
1968
1855
1871
1968
2091
2139
2096
1973
1823
1701
1680
1826
2043
2175
2179
2105
1955
1823
1774
1822
1962
2104
2145
2074
1935
1766
1655
1674
1803
1979
2114
2115
2015
1861
1715
1664
1728
1862
1996
2042
1986
1873
1775
1739
1845
2011
2143
2170
2080
1914
1758
1677
1680
1791
1938
2026
2003
1895
1730
1623
1651
1792
1968
2112
2160
2096
1956
1838
1723
1725
1840
1965
1997
1945
1823
1695
1649
1679
1778
1920
2035
2016
1872
1697
1565
1584
1726
1929
2080
2089
1982
1831
1699
1679
1770
1923
2079
2146
2095
1951
1798
1694
1728
1869
2015
2080
2015
1882
1744
1675
1709
1805
1932
2032
2030
1929
1775
1649
1635
1746
1917
2039
2065
2000
1853
1706
1659
1743
1866
1979
2032
1998
1872
1739
1671
1699
1796
1931
2034
2063
1994
1888
1782
1774
1863
2026
2190
2229
2122
1926
1747
1655
1657
1729
1823
1817
1641
1343
1055
874
873
1036
1290
1535
1680
1697
1626
1567
1607
1735
1913
2093
2177
2149
2030
1901
1827
1872
1989
2128
2193
2146
2017
1855
1733
1744
1877
2056
2163
2161
2073
1936
1830
1787
1833
1958
2091
2146
2090
1953
1856
1814
1872
1991
2112
2182
2159
2059
1918
1804
1787
1856
1983
2112
2161
2098
1984
1886
1887
1991
2155
2268
2273
2197
2070
1943
1889
1942
2065
2219
2330
2335
2254
2129
2000
1986
2096
2239
2338
2320
2215
2063
1943
1962
2090
2243
2305
2256
2144
2031
1949
1959
2033
2146
2227
2269
2224
2098
1920
1794
1839
2007
2185
2251
2202
2058
1874
1744
1711
1766
1909
2065
2162
2119
1975
1822
1761
1837
1954
2071
2128
2095
1968
1798
1680
1661
1753
1899
2057
2149
2093
1946
1779
1695
1712
1874
2031
2032
1885
1702
1568
1567
1680
1856
1982
2017
1964
1833
1663
1564
1585
1743
1942
2068
2047
1958
1814
1741
1788
1902
2058
2159
2147
2026
1821
1631
1558
1642
1808
1979
2042
1961
1833
1708
1617
1650
1786
1903
1977
1970
1867
1692
1535
1565
1725
1925
2096
2161
2131
1986
1831
1726
1709
1794
1917
1983
1950
1808
1669
1616
1693
1854
2000
2077
2021
1866
1685
1574
1600
1737
1894
2000
2000
1906
1742
1615
1627
1754
1920
2042
2112
2081
1939
1815
1762
1787
1858
1936
1959
1904
1810
1757
1749
1736
1751
1867
2023
2113
2083
1958
1823
1755
1775
1833
1879
1842
1691
1453
1236
1121
1147
1294
1472
1601
1616
1558
1467
1435
1509
1711
1968
2118
2131
2089
1970
1863
1847
1929
2090
2158
2111
2001
1887
1777
1727
1725
1819
1981
2128
2152
2018
1826
1708
1731
1878
2111
2275
2282
2112
1905
1764
1748
1857
2032
2193
2251
2176
2032
1894
1819
1847
2011
2202
2282
2207
2036
1882
1805
1845
1939
2084
2256
2346
2253
2065
1892
1841
1919
2082
2225
2274
2239
2134
2029
2014
2092
2208
2322
2342
2266
2146
1996
1918
1965
2141
2351
2487
2498
2382
2193
2032
1989
2083
2271
2368
2303
2149
1975
1851
1840
1924
2061
2187
2256
2252
2180
2030
1831
1789
1875
2022
2150
2135
2031
1914
1808
1779
1837
1966
2116
2210
2186
2030
1818
1681
1695
1840
2033
2130
2097
1962
1823
1727
1728
1834
2010
2159
2173
2086
1967
1860
1808
1855
1987
2135
2165
2065
1890
1696
1599
1638
1776
1979
2143
2150
2005
1818
1703
1739
1872
2029
2119
2100
1988
1841
1746
1771
1847
1957
2060
2069
1979
1859
1779
1770
1834
2003
2207
2295
2211
2029
1843
1737
1744
1827
1968
2099
2114
2000
1861
1780
1791
1841
1945
2096
2160
2090
1905
1717
1615
1670
1846
2021
2139
2101
1962
1822
1761
1783
1840
1947
2056
2092
2022
1921
1804
1766
1822
1958
2096
2144
2113
2015
1890
1815
1853
1982
2119
2198
2198
2127
2002
1963
1968
2013
2124
2202
2158
1984
1753
1535
1443
1456
1506
1535
1520
1475
1427
1375
1370
1505
1744
2015
2174
2171
2060
1905
1811
1843
1999
2234
2379
2369
2219
2016
1882
1873
1966
2109
2226
2263
2213
2096
1963
1887
1955
2138
2338
2419
2352
2180
2000
1891
1915
2035
2177
2268
2231
2113
1957
1847
1829
1919
2118
2320
2409
2318
2140
1978
1936
2013
2208
2403
2474
2401
2242
2080
1984
2037
2190
2352
2460
2455
2325
2165
2029
2010
2111
2281
2435
2478
2407
2272
2157
2141
2241
2371
2465
2495
2459
2337
2180
2095
2112
2199
2335
2443
2437
2327
2192
2102
2085
2163
2308
2439
2455
2352
2205
2104
2078
2106
2179
2262
2291
2256
2131
1982
1883
1901
2027
2170
2250
2235
2126
1981
1874
1889
1985
2122
2247
2272
2185
2021
1901
1861
1930
2094
2256
2326
2317
2168
1986
1863
1871
2000
2176
2291
2301
2194
2031
1904
1882
1977
2145
2288
2331
2242
2084
1949
1917
1983
2113
2243
2304
2250
2096
1936
1840
1872
2003
2172
2286
2289
2180
2015
1911
1915
2044
2220
2374
2433
2355
2163
1967
1877
1922
2075
2221
2279
2243
2110
1915
1808
1845
1984
2149
2253
2255
2149
2013
1943
1977
2096
2225
2315
2315
2239
2087
1936
1891
1938
2053
2176
2245
2209
2074
1935
1871
1915
2067
2226
2351
2323
2192
2042
1963
1969
2055
2176
2292
2321
2271
2176
2080
2025
2073
2192
2320
2368
2291
2112
1878
1693
1611
1633
1711
1741
1677
1522
1394
1383
1505
1719
1953
2145
2221
2182
2069
1963
1943
2032
2177
2314
2369
2297
2128
1975
1903
1941
2083
2258
2381
2383
2272
2106
1981
1971
2078
2224
2320
2313
2224
2098
1998
2010
2096
2192
2271
2304
2267
2129
1968
1878
1914
2035
2193
2289
2282
2181
2052
1968
2013
2149
2288
2355
2327
2219
2071
1958
1955
2080
2267
2419
2448
2368
2205
2079
2041
2112
2237
2367
2451
2437
2336
2194
2081
2060
2147
2298
2422
2442
2359
2211
2079
2044
2131
2268
2411
2473
2416
2263
2111
2023
2059
2165
2284
2342
2303
2176
2017
1906
1913
2034
2212
2320
2318
2193
2030
1896
1866
1933
2064
2192
2235
2173
2019
1857
1751
1776
1895
2027
2109
2097
1987
1850
1778
1819
1936
2078
2155
2144
2040
1889
1764
1748
1853
2018
2173
2218
2147
1983
1825
1737
1776
1923
2089
2171
2124
1968
1795
1691
1697
1814
1952
2046
2037
1951
1825
1725
1716
1818
1967
2122
2167
2064
1891
1746
1693
1760
1894
2039
2112
2070
1938
1797
1719
1759
1874
2039
2161
2159
2063
1901
1755
1744
1842
2000
2137
2163
2081
1901
1741
1659
1697
1835
1984
2067
2031
1915
1789
1696
1712
1827
2000
2119
2110
1993
1822
1692
1683
1782
1949
2075
2111
2015
1854
1715
1680
1765
1920
2037
2078
2020
1922
1823
1757
1798
1931
2111
2256
2295
2223
2064
1879
1775
1775
1840
1877
1818
1659
1443
1249
1147
1152
1263
1414
1526
1566
1520
1455
1455
1558
1751
1968
2145
2186
2096
1935
1797
1778
1868
2020
2154
2187
2118
1983
1863
1813
1870
2003
2163
2229
2172
2039
1913
1839
1848
1952
2115
2225
2224
2112
1938
1796
1763
1840
1979
2117
2158
2094
1941
1810
1776
1846
2000
2154
2235
2196
2064
1918
1855
1900
2026
2185
2277
2256
2155
2021
1927
1933
2013
2143
2260
2303
2211
2042
1902
1869
1963
2146
2319
2385
2336
2173
1984
1904
1953
2112
2285
2381
2367
2283
2167
2039
2013
2082
2197
2305
2329
2255
2128
2017
1958
1980
2062
2149
2182
2125
1986
1856
1771
1795
1935
2102
2173
2126
1977
1799
1679
1680
1791
1939
2054
2038
1921
1746
1598
1562
1655
1827
1972
2032
1997
1872
1733
1648
1685
1814
1967
2054
1985
1834
1670
1575
1598
1719
1872
1985
2000
1920
1771
1651
1632
1705
1842
1975
2047
2016
1863
1684
1589
1610
1728
1884
1978
1939
1810
1666
1574
1565
1674
1837
1963
2003
1936
1815
1709
1669
1733
1855
1979
2038
2005
1905
1777
1728
1775
1855
1943
1987
1968
1845
1693
1584
1563
1654
1830
1959
1997
1923
1770
1637
1630
1720
1881
2031
2078
2007
1859
1699
1613
1645
1776
1933
2030
2005
1906
1785
1696
1696
1775
1905
2022
2018
1910
1746
1612
1590
1679
1840
1986
2066
2045
1926
1765
1643
1613
1702
1849
1954
1959
1872
1752
1687
1743
1898
2113
2244
2240
2123
1949
1799
1709
1673
1670
1651
1573
1421
1219
1001
861
880
1051
1271
1471
1579
1571
1519
1521
1655
1842
2034
2170
2192
2103
1945
1824
1806
1868
1989
2106
2147
2099
1965
1813
1738
1776
1900
2047
2146
2135
2017
1881
1808
1858
1994
2144
2229
2222
2117
1983
1884
1879
1961
2108
2231
2245
2160
1985
1833
1789
1851
1984
2123
2196
2165
2047
1904
1829
1879
2023
2192
2317
2332
2236
2095
1967
1964
2059
2203
2335
2375
2303
2170
2047
2003
2073
2220
2357
2445
2442
2354
2209
2096
2080
2187
2353
2465
2437
2304
2127
2001
1993
2089
2241
2370
2397
2301
2125
1954
1878
1936
2093
2245
2306
2250
2096
1920
1809
1809
1907
2064
2195
2231
2130
1945
1805
1778
1842
1973
2102
2128
2032
1862
1703
1637
1703
1871
2032
2106
2059
1904
1744
1648
1651
1763
1931
2064
2087
1998
1856
1744
1743
1836
1971
2091
2112
2021
1856
1702
1634
1671
1798
1949
2047
2033
1923
1792
1713
1739
1868
2022
2115
2095
1996
1853
1733
1698
1744
1858
1975
2032
1974
1845
1753
1719
1759
1851
1957
2007
1969
1846
1711
1626
1651
1789
1943
2080
2111
2013
1854
1713
1710
1823
1995
2126
2147
2079
1934
1808
1783
1849
1974
2114
2174
2109
1968
1843
1798
1862
1979
2129
2255
2241
2112
1911
1762
1711
1746
1877
2015
2065
1991
1843
1719
1691
1774
1933
2096
2174
2092
1925
1772
1680
1725
1862
2022
2133
2118
1999
1851
1743
1739
1856
2031
2175
2203
2121
1963
1810
1759
1837
2035
2243
2351
2325
2218
2064
1926
1889
1927
1993
1971
1825
1595
1334
1142
1047
1069
1191
1348
1438
1456
1422
1407
1472
1637
1865
2092
2219
2231
2137
2003
1926
1957
2093
2233
2306
2255
2110
1932
1815
1826
1957
2121
2234
2230
2129
1988
1889
1857
1934
2092
2250
2333
2302
2160
2013
1936
1977
2111
2240
2320
2284
2149
2003
1923
1947
2065
2211
2313
2311
2224
2101
1987
1965
2038
2192
2315
2346
2267
2112
1970
1909
1958
2118
2299
2416
2409
2310
2192
2101
2101
2198
2376
2535
2544
2414
2227
2090
2046
2126
2273
2429
2497
2433
2298
2171
2116
2131
2243
2365
2426
2377
2224
2063
1969
1984
2099
2240
2337
2333
2231
2067
1926
1879
1938
2054
2160
2211
2178
2055
1916
1847
1907
2061
2211
2289
2241
2087
1891
1747
1726
1814
1975
2131
2163
2081
1915
1776
1728
1807
1970
2112
2155
2089
1936
1794
1750
1819
1949
2073
2126
2078
1936
1797
1706
1712
1823
2005
2170
2189
2064
1882
1754
1731
1827
1969
2085
2117
2063
1925
1795
1731
1744
1830
1958
2045
2015
1905
1747
1646
1658
1776
1935
2077
2098
2021
1876
1758
1719
1792
1936
2077
2126
2064
1931
1795
1715
1754
1882
2027
2090
2035
1906
1770
1705
1747
1898
2047
2147
2129
2007
1839
1697
1680
1779
1961
2101
2115
2000
1833
1680
1605
1665
1851
2060
2163
2119
1971
1792
1677
1664
1763
1904
2022
2035
1951
1796
1655
1622
1705
1857
2000
2065
2013
1877
1728
1645
1678
1802
1950
2047
2031
1924
1791
1695
1730
1843
2001
2125
2125
2023
1879
1761
1708
1756
1902
2039
2088
2012
1875
1754
1712
1798
1939
2077
2138
2018
1756
1459
1232
1125
1151
1236
1318
1330
1280
1207
1205
1309
1511
1763
1979
2083
2038
1907
1765
1706
1759
1904
2067
2157
2125
1975
1808
1725
1761
1884
2045
2148
2135
2034
1875
1749
1738
1833
1979
2112
2164
2098
1949
1798
1744
1807
1957
2134
2251
2225
2096
1935
1808
1808
1923
2090
2203
2202
2099
1936
1820
1802
1898
2062
2214
2252
2187
2055
1927
1897
1973
2125
2259
2310
2257
2139
2020
1958
1973
2099
2272
2381
2336
2190
2032
1945
1965
2039
2183
2320
2384
2317
2181
2062
2005
2064
2175
2272
2317
2253
2117
1969
1881
1913
2033
2187
2292
2282
2163
1999
1872
1825
1902
2039
2182
2231
2165
1990
1834
1776
1807
1889
1975
2023
1967
1844
1711
1634
1680
1823
1998
2127
2132
2011
1862
1755
1730
1814
1962
2077
2098
2016
1871
1744
1712
1791
1954
2126
2206
2147
1991
1816
1687
1680
1776
1934
2071
2113
2055
1904
1769
1721
1775
1890
2011
2032
1940
1790
1670
1648
1719
1891
2063
2125
2043
1869
1696
1613
1653
1781
1927
2031
2013
1904
1775
1681
1697
1804
1959
2075
2085
1967
1802
1670
1632
1729
1906
2067
2133
2103
1968
1823
1712
1716
1842
2013
2141
2135
2011
1846
1735
1729
1840
1985
2112
2133
2047
1887
1738
1686
1753
1903
2064
2127
2086
1954
1803
1691
1692
1802
1951
2069
2081
1967
1792
1667
1678
1803
1979
2119
2146
2043
1887
1743
1681
1735
1863
2005
2096
2076
1952
1815
1761
1827
1986
2160
2251
2227
2125
1981
1879
1872
1952
2060
2079
1968
1756
1486
1255
1136
1152
1277
1430
1524
1518
1445
1389
1393
1535
1777
2001
2147
2171
2097
1962
1855
1838
1911
2047
2161
2176
2095
1945
1813
1789
1865
2017
2173
2239
2198
2074
1939
1883
1945
2096
2205
2256
2224
2096
1919
1808
1819
1936
2107
2227
2238
2143
2000
1891
1878
1984
2133
2256
2308
2256
2129
1975
1890
1927
2074
2242
2333
2303
2167
2003
1904
1918
2066
2270
2406
2421
2338
2211
2113
2099
2145
2282
2419
2448
2341
2173
2019
1957
2016
2167
2331
2421
2398
2302
2176
2087
2094
2182
2346
2464
2467
2363
2182
2021
1952
2001
2147
2289
2333
2269
2123
1953
1873
1935
2085
2245
2333
2301
2162
1991
1856
1839
1926
2083
2179
2163
2080
1946
1828
1796
1872
2019
2165
2215
2162
2037
1902
1826
1843
1967
2127
2209
2171
2034
1898
1826
1870
1967
2103
2192
2192
2095
1947
1828
1831
1930
2080
2197
2211
2143
2018
1893
1819
1856
1963
2098
2182
2148
1991
1811
1683
1678
1803
1971
2112
2147
2065
1919
1797
1767
1851
2006
2145
2166
2089
1939
1805
1743
1799
1964
2137
2233
2209
2074
1917
1809
1828
1956
2127
2245
2238
2142
1983
1857
1831
1893
2014
2128
2153
2068
1927
1787
1721
1793
1936
2083
2131
2075
1939
1805
1728
1776
1905
2062
2164
2151
2023
1872
1755
1754
1847
1999
2143
2202
2161
2007
1856
1773
1808
1951
2112
2224
2192
2057
1919
1853
1893
2029
2175
2272
2278
2149
1936
1734
1616
1587
1623
1658
1619
1488
1296
1149
1125
1258
1489
1742
1893
1931
1885
1818
1782
1844
1974
2150
2278
2308
2236
2093
1943
1887
1968
2128
2236
2250
2168
2014
1889
1845
1904
2023
2154
2240
2210
2076
1931
1860
1891
2032
2193
2288
2273
2166
2007
1895
1881
1968
2112
2257
2320
2256
2121
1991
1963
2031
2181
2317
2369
2311
2167
2003
1919
1947
2087
2259
2387
2388
2299
2148
2046
2033
2116
2254
2379
2417
2358
2235
2095
2059
2146
2311
2463
2544
2485
2318
2132
2032
2066
2190
2352
2467
2480
2357
2190
2060
2038
2140
2306
2443
2457
2349
2175
2007
1939
1990
2129
2259
2314
2269
2129
1959
1843
1866
1995
2139
2213
2176
2047
1891
1776
1783
1885
2039
2169
2197
2115
1966
1803
1728
1744
1875
2059
2159
2147
2000
1820
1705
1721
1861
2055
2185
2192
2081
1931
1813
1805
1891
2007
2113
2122
2026
1877
1753
1710
1775
1922
2092
2160
2102
1947
1792
1713
1756
1890
2054
2117
2067
1942
1794
1693
1699
1825
2008
2138
2146
2042
1879
1723
1652
1716
1874
2025
2078
2003
1867
1744
1695
1738
1872
2018
2118
2093
1968
1829
1743
1765
1894
2067
2193
2198
2095
1885
1714
1657
1723
1879
2032
2095
2019
1886
1753
1680
1723
1894
2069
2173
2159
2064
1906
1759
1712
1776
1917
2030
2039
1959
1819
1712
1698
1785
1933
2064
2112
2061
1917
1778
1719
1778
1936
2137
2266
2265
2139
1984
1884
1873
1918
1973
1980
1874
1669
1439
1245
1163
1215
1367
1535
1681
1712
1649
1574
1535
1648
1830
2017
2128
2128
2035
1904
1813
1835
1955
2136
2281
2291
2160
1971
1812
1742
1789
1945
2113
2202
2167
2035
1902
1823
1871
2015
2176
2289
2288
2192
2064
1959
1947
2032
2154
2243
2249
2153
1990
1861
1842
1936
2093
2230
2292
2237
2093
1934
1869
1927
2077
2229
2315
2288
2183
2035
1926
1936
2037
2193
2310
2335
2262
2130
2011
1987
2082
2239
2389
2463
2399
2256
2103
2032
2069
2207
2384
2475
2416
2267
2112
2022
2047
2146
2273
2390
2394
2278
2109
1941
1894
1984
2169
2338
2387
2301
2123
1940
1867
1910
2059
2233
2329
2275
2099
1906
1773
1745
1853
2014
2151
2161
2073
1940
1837
1835
1935
2098
2230
2239
2116
1953
1787
1712
1763
1906
2063
2148
2123
1979
1831
1745
1786
1920
2096
2224
2218
2122
1969
1837
1792
1877
2015
2142
2173
2095
1927
1775
1715
1795
1980
2161
2234
2165
1999
1820
1712
1737
1882
2064
2189
2173
2023
1840
1703
1705
1810
1967
2103
2143
2073
1924
1786
1740
1807
1949
2110
2190
2167
2047
1879
1758
1769
1885
2033
2154
2146
2033
1904
1801
1787
1864
2011
2128
2140
2032
1872
1744
1726
1802
1949
2090
2160
2116
1968
1807
1707
1711
1823
1992
2128
2130
2032
1859
1723
1702
1805
1955
2110
2173
2089
1892
1712
1642
1703
1857
2037
2149
2145
2064
1968
1915
1933
2021
2122
2145
2039
1831
1561
1334
1228
1264
1390
1493
1502
1411
1289
1222
1286
1467
1722
1950
2080
2073
1969
1853
1792
1841
1984
2158
2281
2271
2155
1984
1839
1801
1884
2017
2129
2164
2106
1969
1829
1745
1789
1934
2097
2181
2135
1996
1862
1792
1840
1968
2128
2235
2199
2081
1919
1799
1771
1851
2005
2160
2192
2113
1953
1805
1750
1831
1984
2155
2224
2191
2062
1899
1822
1891
2065
2239
2335
2306
2182
2032
1937
1937
2047
2224
2358
2396
2303
2128
1961
1889
1943
2093
2230
2302
2274
2163
2029
1947
1971
2099
2255
2354
2352
2230
2053
1924
1915
2018
2165
2277
2291
2205
2043
1904
1856
1907
2029
2151
2185
2113
1956
1795
1710
1730
1861
2011
2128
2137
2032
1889
1772
1747
1829
1973
2094
2096
1981
1786
1634
1600
1690
1844
1997
2084
2054
1911
1723
1609
1618
1735
1889
1991
1997
1901
1761
1665
1678
1776
1922
2032
2063
1957
1788
1634
1609
1697
1856
2016
2084
2019
1870
1712
1634
1683
1843
1995
2076
2034
1920
1793
1714
1735
1840
1943
2033
2028
1919
1755
1625
1606
1706
1875
2032
2086
1999
1843
1701
1647
1681
1811
1975
2064
2033
1917
1780
1699
1723
1838
2001
2128
2125
2015
1873
1783
1739
1798
1946
2096
2145
2063
1872
1691
1622
1680
1824
1986
2100
2096
1973
1798
1670
1665
1777
1943
2086
2105
2009
1858
1727
1706
1808
1967
2101
2131
2042
1857
1687
1628
1686
1854
2031
2143
2153
2047
1898
1799
1807
1929
2106
2243
2274
2199
2026
1851
1729
1696
1721
1719
1635
1457
1233
1040
927
944
1099
1326
1535
1661
1661
1611
1625
1718
1899
2091
2227
2255
2170
2003
1854
1812
1895
2059
2203
2261
2223
2096
1973
1907
1919
2035
2193
2283
2251
2139
1993
1898
1890
1979
2130
2250
2272
2185
2029
1887
1854
1929
2097
2253
2320
2251
2085
1918
1861
1939
2109
2261
2350
2319
2207
2062
1951
1961
2071
2235
2353
2380
2288
2130
1985
1955
2034
2211
2368
2437
2380
2252
2128
2090
2143
2274
2423
2510
2480
2364
2208
2103
2123
2257
2417
2518
2507
2382
2210
2083
2062
2154
2304
2447
2491
2405
2239
2071
1968
2000
2159
2333
2395
2342
2188
2005
1913
1905
2027
2166
2245
2227
2123
1962
1830
1811
1894
2043
2192
2227
2157
1999
1871
1823
1871
1981
2096
2159
2111
1980
1839
1741
1757
1870
1991
2084
2083
1977
1831
1726
1699
1773
1913
2032
2094
2038
1914
1803
1763
1824
1950
2081
2155
2112
1975
1823
1718
1732
1844
1985
2080
2063
1937
1775
1651
1638
1739
1907
2058
2111
2033
1894
1754
1705
1765
1915
2066
2132
2080
1923
1767
1683
1713
1847
2000
2099
2082
1955
1791
1675
1668
1793
1986
2143
2189
2116
1962
1794
1700
1744
1913
2096
2169
2102
1936
1752
1653
1662
1790
1936
2046
2060
1957
1807
1689
1680
1774
1917
2054
2077
1978
1824
1711
1667
1723
1856
2006
2083
2037
1903
1748
1659
1669
1776
1915
2014
2020
1955
1818
1689
1661
1743
1904
2067
2135
2081
1933
1776
1706
1765
1920
2078
2158
2131
2032
1907
1822
1837
1951
2099
2199
2139
1923
1639
1369
1211
1186
1269
1375
1383
1245
1035
893
897
1083
1385
1697
1899
1954
1870
1757
1730
1818
1957
2095
2167
2138
2023
1889
1792
1791
1914
2112
2262
2262
2178
2055
1908
1824
1860
2019
2160
2211
2128
1967
1803
1725
1779
1941
2128
2235
2234
2128
1984
1861
1843
1921
2092
2237
2285
2199
2032
1869
1815
1874
2031
2192
2263
2211
2091
1962
1902
1954
2101
2271
2403
2423
2320
2183
2065
2025
2087
2224
2361
2385
2303
2144
2007
1984
2083
2234
2352
2387
2327
2192
2058
2001
2075
2226
2384
2463
2416
2267
2109
1997
1999
2088
2211
2313
2338
2255
2096
1936
1877
1936
2079
2211
2256
2187
2029
1859
1759
1799
1946
2121
2227
2192
2046
1875
1775
1788
1902
2056
2160
2167
2071
1923
1794
1762
1835
1973
2109
2145
2066
1913
1776
1714
1759
1898
2064
2160
2112
1943
1776
1682
1697
1817
1987
2112
2114
2020
1858
1707
1670
1740
1895
2046
2112
2032
1894
1730
1655
1694
1821
1959
2047
2030
1929
1795
1709
1721
1830
1975
2081
2075
1970
1811
1680
1664
1748
1905
2067
2128
2077
1929
1779
1702
1739
1865
2003
2093
2047
1904
1744
1631
1623
1721
1879
2017
2077
2021
1895
1776
1714
1751
1893
2045
2115
2062
1908
1757
1680
1744
1904
2080
2168
2143
2021
1878
1775
1795
1917
2078
2187
2198
2117
1957
1819
1781
1856
2002
2130
2150
2047
1883
1729
1677
1742
1901
2066
2160
2131
1994
1843
1739
1743
1864
2032
2173
2186
2063
1872
1734
1722
1811
1958
2113
2176
2126
1968
1813
1750
1794
1922
2096
2192
2189
2087
1947
1857
1879
2019
2195
2307
2256
2038
1744
1475
1329
1313
1377
1425
1412
1330
1229
1173
1215
1381
1638
1882
2046
2073
2001
1914
1858
1893
2011
2171
2279
2270
2162
2025
1907
1872
1922
2068
2206
2247
2194
2063
1907
1864
1921
2047
2192
2254
2199
2069
1927
1855
1891
2019
2177
2283
2276
2163
2016
1905
1890
1998
2160
2287
2322
2261
2141
2027
1988
2033
2167
2320
2394
2331
2164
1985
1877
1895
2019
2195
2346
2375
2302
2177
2070
2058
2132
2257
2384
2427
2355
2203
2047
2003
2093
2259
2413
2423
2334
2211
2086
2019
2065
2202
2352
2443
2435
2335
2205
2098
2087
2189
2333
2433
2448
2379
2229
2082
2020
2055
2166
2274
2307
2224
2044
1875
1782
1815
1966
2145
2271
2255
2128
1963
1821
1789
1887
2023
2139
2154
2064
1925
1808
1777
1851
1999
2157
2231
2202
2067
1911
1845
1856
1953
2111
2207
2198
2058
1887
1786
1793
1923
2109
2210
2202
2085
1919
1775
1735
1808
1967
2109
2155
2086
1937
1776
1682
1716
1855
2022
2153
2173
2070
1909
1791
1781
1857
1985
2097
2125
2046
1901
1759
1697
1755
1897
2053
2103
2043
1921
1807
1758
1819
1945
2091
2160
2128
2004
1853
1743
1743
1819
1951
2078
2107
2025
1877
1762
1735
1817
1968
2109
2171
2135
2002
1843
1743
1754
1886
2047
2150
2124
1977
1813
1724
1745
1866
1986
2064
2059
1975
1810
1648
1601
1680
1840
1998
2065
2032
1915
1787
1675
1666
1788
1950
2063
2041
1905
1743
1634
1648
1768
1910
2025
2031
1923
1791
1692
1697
1806
1971
2149
2239
2230
2112
1946
1869
1887
1967
2006
1940
1742
1462
1200
1011
982
1087
1287
1488
1614
1630
1579
1517
1555
1680
1872
2059
2138
2119
2021
1887
1824
1871
1983
2128
2226
2215
2099
1965
1874
1885
1987
2119
2215
2192
2062
1886
1765
1774
1907
2085
2213
2246
2159
1983
1835
1779
1862
2026
2196
2286
2253
2129
2000
1920
1919
2015
2173
2299
2294
2192
2058
1951
1936
2019
2162
2273
2295
2223
2099
1965
1903
1942
2095
2262
2381
2381
2256
2085
1969
2005
2160
2342
2474
2484
2358
2179
2035
2004
2103
2256
2378
2401
2329
2176
2014
1942
2011
2173
2347
2437
2386
2226
2059
1937
1938
2057
2210
2323
2309
2177
1998
1859
1826
1902
2032
2159
2186
2112
1968
1821
1758
1813
1953
2106
2193
2176
2058
1906
1812
1819
1903
2003
2087
2082
1983
1839
1734
1744
1843
2000
2123
2133
2020
1850
1701
1648
1741
1891
2047
2161
2141
2012
1842
1712
1699
1808
1965
2066
2059
1946
1775
1664
1675
1808
1989
2131
2179
2119
1955
1783
1722
1771
1895
2055
2141
2091
1927
