1942
1925
2000
2128
2230
2262
2205
2105
1983
1923
1964
2066
2192
2277
2262
2162
2032
1963
1984
2087
2213
2288
2278
2194
2076
1985
1971
2053
2173
2288
2336
2269
2166
2071
2039
2098
2202
2320
2387
2373
2288
2176
2100
2111
2211
2350
2447
2455
2383
2282
2207
2203
2262
2370
2457
2493
2426
2298
2187
2137
2160
2258
2366
2414
2374
2256
2121
2033
2041
2128
2237
2307
2295
2212
2083
1965
1939
2002
2122
2207
2230
2171
2042
1918
1845
1878
1984
2108
2166
2131
2018
1887
1808
1824
1911
2032
2112
2102
2011
1898
1816
1809
1887
1997
2087
2115
2059
1950
1851
1807
1862
1969
2089
2128
2081
1962
1866
1819
1863
1974
2101
2167
2151
2064
1936
1842
1823
1893
2013
2128
2165
2111
1991
1886
1847
1901
2002
2101
2160
2129
2033
1926
1861
1879
1968
2080
2137
2110
2016
1907
1822
1837
1929
2062
2167
2197
2118
1985
1875
1840
1897
2005
2124
2162
2112
1987
1866
1803
1842
1955
2086
2160
2147
2043
1925
1835
1839
1910
2029
2119
2155
2085
1954
1840
1794
1850
1976
2102
2174
2151
2062
1951
1882
1905
1999
2118
2186
2178
2087
1968
1879
1887
1965
2085
2171
2187
2118
1997
1897
1871
1935
2038
2144
2192
2141
2021
1899
1827
1855
1950
2075
2153
2140
2046
1925
1834
1821
1888
2010
2118
2141
2073
1961
1869
1841
1902
2019
2121
2164
2125
2015
1906
1842
1869
1975
2083
2153
2135
2035
1914
1837
1839
1931
2069
2182
2213
2142
2006
1890
1847
1885
1974
2063
2097
2044
1923
1822
1792
1855
1972
2102
2160
2128
2005
1862
1733
1674
1699
1753
1781
1744
1663
1579
1530
1575
1706
1872
2034
2125
2103
2001
1909
1879
1936
2047
2175
2251
2223
2125
2000
1930
1933
2027
2167
2272
2288
2207
2079
1961
1925
1988
2112
2211
2247
2192
2085
1968
1914
1953
2064
2182
2253
2251
2165
2047
1973
1985
2079
2192
2275
2283
2201
2077
1987
1983
2059
2160
2256
2295
2256
2147
2055
2007
2042
2145
2268
2339
2325
2233
2112
2032
2034
2123
2249
2365
2390
2323
2213
2124
2105
2161
2283
2385
2435
2385
2281
2167
2116
2166
2285
2413
2485
2466
2350
2219
2126
2128
2208
2325
2411
2414
2330
2201
2099
2064
2125
2219
2287
2302
2234
2111
1991
1932
1968
2066
2170
2215
2179
2066
1929
1871
1888
1971
2091
2154
2141
2053
1925
1830
1805
1872
1999
2115
2145
2083
1966
1847
1787
1828
1928
2037
2109
2084
1979
1859
1788
1808
1904
2021
2110
2109
2021
1901
1810
1807
1887
2015
2126
2154
2089
1964
1845
1799
1840
1956
2081
2148
2124
2019
1902
1833
1846
1946
2077
2167
2164
2075
1945
1856
1857
1936
2058
2134
2157
2085
1965
1854
1820
1884
2002
2118
2165
2136
2033
1919
1846
1856
1936
2047
2128
2132
2047
1936
1856
1849
1930
2061
2160
2189
2120
1980
1855
1810
1869
1973
2086
2141
2118
2031
1920
1837
1862
1966
2093
2160
2146
2058
1934
1840
1814
1887
1994
2102
2133
2082
1977
1877
1846
1904
2017
2129
2179
2139
2022
1894
1838
1861
1965
2091
2171
2187
2112
1998
1900
1894
1970
2094
2179
2202
2129
2010
1904
1856
1910
2021
2135
2183
2160
2064
1934
1843
1857
1957
2064
2131
2122
2028
1920
1852
1855
1920
2037
2139
2152
2079
1951
1845
1802
1866
1981
2087
2127
2096
2000
1901
1854
1888
1984
2118
2190
2159
2064
1925
1840
1833
1918
2039
2135
2173
2114
2019
1923
1886
1922
2003
2076
2098
2046
1938
1824
1771
1826
1953
2099
2179
2160
2039
1890
1776
1737
1773
1824
1853
1823
1724
1591
1489
1483
1590
1753
1918
2013
2042
1984
1904
1855
1903
2006
2125
2201
2201
2112
1992
1918
1920
2006
2122
2202
2213
2145
2032
1938
1915
1972
2082
2176
2227
2192
2092
1983
1911
1939
2047
2171
2249
2241
2154
2031
1947
1947
2019
2146
2247
2267
2196
2091
1985
1973
2046
2166
2266
2304
2247
2130
2016
1968
2015
2139
2271
2339
2320
2240
2141
2064
2055
2144
2266
2357
2383
2321
2211
2112
2096
2177
2301
2416
2459
2409
2300
2182
2125
2160
2259
2368
2426
2416
2327
2209
2116
2112
2196
2319
2402
2407
2319
2195
2091
2055
2109
2213
2300
2346
2289
2171
2053
1981
2000
2091
2186
2245
2216
2100
1965
1872
1872
1953
2070
2158
2160
2067
1938
1830
1808
1870
1984
2093
2124
2065
1946
1837
1791
1837
1947
2063
2115
2098
2006
1875
1792
1793
1886
2017
2120
2142
2064
1936
1835
1809
1877
2000
2107
2138
2079
1971
1865
1814
1846
1946
2074
2148
2125
2021
1904
1835
1854
1963
2099
2185
2184
2094
1961
1852
1821
1898
2025
2144
2192
2148
2031
1903
1834
1863
1967
2078
2145
2132
2042
1922
1841
1851
1940
2074
2160
2155
2064
1936
1845
1839
1908
2021
2128
2160
2102
1981
1867
1807
1850
1957
2080
2131
2096
1989
1883
1809
1826
1920
2062
2163
2169
2079
1951
1856
1830
1887
1989
2091
2114
2064
1954
1859
1809
1869
1979
2099
2157
2117
2012
1899
1837
1873
1972
2097
2165
2158
2064
1919
1825
1815
1903
2012
2114
2141
2094
1982
1882
1849
1904
2035
2160
2224
2189
2067
1936
1863
1868
1943
2079
2177
2197
2126
2001
1909
1879
1937
2047
2149
2176
2111
1978
1857
1804
1853
1968
2098
2163
2128
2014
1890
1827
1856
1950
2078
2169
2163
2078
1950
1853
1837
1904
2010
2115
2155
2107
1984
1873
1833
1887
1993
2106
2164
2126
2021
1915
1859
1900
1999
2109
2177
2174
2086
1936
1827
1781
1845
1968
2068
2112
2071
1986
1903
1859
1902
1982
2080
2128
2074
1920
1741
1585
1535
1616
1739
1822
1840
1785
1712
1687
1741
1863
2022
2144
2183
2128
2023
1936
1917
1984
2094
2192
2229
2193
2095
1980
1910
1921
2016
2154
2239
2235
2145
2019
1950
1951
2025
2144
2241
2262
2200
2086
1983
1955
2009
2121
2227
2270
2229
2129
2017
1951
1985
2107
2229
2310
2290
2195
2067
1984
1983
2067
2192
2291
2322
2270
2160
2060
2017
2089
2203
2307
2365
2329
2229
2119
2063
2085
2191
2318
2396
2371
2279
2179
2111
2128
2231
2367
2458
2479
2397
2269
2165
2131
2197
2321
2427
2465
2413
2299
2191
2128
2158
2246
2352
2416
2379
2277
2142
2056
2037
2123
2235
2305
2308
2221
2091
1968
1919
1961
2069
2161
2208
2153
2029
1904
1836
1872
1985
2110
2170
2138
2034
1913
1835
1835
1921
2047
2135
2159
2095
1971
1870
1826
1885
1995
2102
2141
2088
1969
1867
1827
1869
1969
2089
2162
2137
2042
1933
1855
1850
1923
2039
2128
2140
2064
1941
1851
1838
1914
2033
2143
2183
2136
2018
1917
1872
1910
2017
2133
2197
2174
2064
1934
1856
1869
1963
2107
2197
2207
2119
1987
1891
1861
1929
2039
2151
2192
2151
2034
1911
1851
1875
1968
2078
2160
2147
2055
1936
1872
1885
1955
2045
2128
2150
2080
1963
1871
1856
1925
2043
2159
2192
2134
2014
1906
1856
1902
2007
2135
2195
2170
2069
1936
1862
1875
1979
2112
2195
2192
2114
1995
1897
1870
1922
2035
2150
2185
2125
1998
1877
1834
1869
1971
2094
2158
2128
2019
1899
1827
1854
1945
2074
2170
2176
2096
1965
1872
1872
1954
2071
2165
2175
2106
1989
1883
1833
1883
1987
2110
2178
2158
2063
1935
1863
1882
1973
2096
2181
2189
2123
1997
1909
1899
1964
2069
2176
2198
2126
1996
1879
1837
1889
2017
2144
2198
2163
2060
1939
1873
1900
2005
2131
2213
2194
2099
1962
1863
1861
1938
2061
2162
2192
2135
2020
1911
1872
1937
2059
2173
2211
2162
2057
1941
1890
1913
2003
2130
2204
2203
2119
1997
1912
1893
1963
2077
2161
2186
2128
2021
1910
1872
1919
2027
2141
2195
2160
2043
1922
1847
1870
1975
2112
2199
2192
2113
1977
1877
1866
1935
2043
2139
2165
2117
2003
1904
1850
1903
2015
2137
2179
2128
2009
1886
1827
1856
1963
2093
2173
2177
2090
1978
1902
1897
1977
2109
2205
2227
2153
2017
1902
1834
1873
1986
2107
2159
2128
2034
1931
1856
1867
1949
2064
2132
2096
1973
1797
1666
1615
1663
1775
1884
1927
1885
1799
1728
1726
1825
1979
2128
2195
2146
2038
1935
1879
1914
2014
2143
2221
2203
2111
1996
1915
1911
1989
2112
2212
2241
2176
2053
1939
1903
1948
2058
2167
2224
2174
2064
1945
1887
1907
2006
2122
2192
2191
2122
2017
1936
1919
2001
2125
2220
2243
2187
2064
1966
1936
1993
2111
2226
2273
2231
2128
2006
1941
1970
2085
2213
2305
2300
2217
2094
2000
1994
2083
2197
2285
2306
2253
2165
2092
2071
2132
2244
2347
2391
2351
2255
2147
2096
2132
2237
2347
2412
2389
2291
2165
2065
2043
2119
2240
2329
2342
2261
2153
2044
2000
2061
2165
2257
2294
2235
2114
1984
1906
1922
2011
2130
2198
2180
2066
1929
1850
1858
1936
2054
2128
2130
2064
1936
1840
1812
1872
1982
2091
2121
2078
1954
1823
1751
1794
1909
2030
2096
2077
1983
1859
1776
1777
1865
2000
2095
2096
2006
1873
1782
1766
1841
1962
2075
2115
2062
1957
1858
1813
1846
1957
2081
2145
2115
2001
1886
1813
1821
1913
2037
2132
2133
2058
1935
1845
1819
1881
1999
2110
2151
2098
1982
1858
1799
1846
1949
2064
2118
2097
2001
1891
1827
1838
1923
2032
2107
2119
2058
1941
1845
1825
1899
2003
2113
2151
2091
1965
1861
1819
1867
1968
2090
2145
2126
2030
1911
1831
1831
1917
2037
2141
2145
2058
1925
1831
1809
1872
1991
2096
2128
2082
1969
1853
1800
1839
1946
2063
2116
2089
1981
1872
1808
1831
1923
2032
2114
2117
2032
1920
1829
1805
1873
1995
2112
2159
2102
1988
1881
1831
1872
1982
2089
2146
2114
2006
1891
1820
1833
1917
2035
2127
2133
2064
1942
1855
1839
1900
2007
2097
2131
2091
1975
1871
1833
1878
1984
2099
2156
2112
2007
1887
1808
1814
1908
2032
2128
2139
2063
1938
1841
1825
1904
2022
2114
2143
2083
1965
1876
1840
1878
1974
2090
2133
2108
2001
1899
1833
1851
1949
2064
2145
2135
2045
1936
1852
1840
1917
2045
2155
2192
2130
2005
1910
1866
1904
2007
2124
2175
2144
2041
1931
1869
1891
1983
2116
2192
2189
2109
1987
1895
1870
1935
2053
2151
2176
2102
1978
1858
1810
1841
1952
2079
2151
2134
2037
1927
1861
1877
1966
2083
2154
2145
2053
1923
1833
1828
1904
2023
2129
2160
2085
1961
1851
1821
1885
2003
2141
2214
2186
2101
1974
1901
1906
1984
2089
2155
2125
2032
1932
1856
1851
1921
2039
2146
2160
2073
1935
1814
1771
1808
1893
1968
1983
1903
1761
1643
1588
1641
1776
1931
2054
2090
2035
1939
1869
1859
1939
2039
2131
2153
2090
1975
1890
1866
1929
2061
2181
2235
2190
2080
1965
1904
1919
2013
2138
2212
2207
2128
2000
1911
1905
1979
2096
2201
2226
2160
2029
1923
1901
1962
2075
2177
2224
2182
2079
1959
1904
1938
2057
2182
2256
2249
2153
2021
1939
1947
2021
2154
2255
2262
2192
2080
1973
1948
2000
2124
2258
2331
2299
2195
2087
2032
2080
2183
2304
2383
2374
2286
2170
2071
2075
2163
2292
2394
2422
2350
2225
2125
2092
2143
2254
2352
2407
2366
2256
2137
2062
2074
2163
2277
2347
2324
2223
2101
2013
2006
2082
2179
2263
2270
2186
2047
1934
1877
1922
2034
2129
2175
2122
2016
1917
1862
1897
1997
2109
2149
2112
2010
1890
1807
1799
1887
2000
2099
2113
2039
1919
1821
1783
1847
1957
2065
2117
2071
1959
1843
1786
1819
1922
2054
2117
2105
2012
1895
1823
1827
1905
2028
2120
2128
2061
1949
1856
1837
1894
2009
2114
2147
2095
1980
1865
1811
1856
1964
2096
2175
2161
2066
1938
1846
1840
1922
2042
2138
2158
2087
1968
1866
1840
1901
2003
2101
2137
2092
1978
1869
1818
1845
1954
2088
2159
2134
2055
1940
1869
1870
1943
2047
2128
2131
2054
1928
1827
1805
1879
1998
2113
2161
2125
2016
1894
1827
1850
1939
2060
2125
2100
2009
1900
1822
1833
1927
2045
2126
2128
2047
1941
1850
1829
1898
2014
2123
2160
2108
2001
1886
1827
1870
1973
2102
2167
2133
2017
1879
1801
1821
1909
2033
2125
2129
2063
1936
1840
1806
1865
1990
2111
2151
2098
1980
1878
1840
1875
1979
2094
2154
2117
2015
1908
1837
1850
1938
2064
2150
2154
2073
1958
1866
1856
1915
2030
2142
2189
2130
2005
1894
1845
1866
1941
2053
2123
2107
2014
1907
1834
1862
1954
2084
2176
2183
2107
1979
1877
1871
1946
2065
2160
2176
2111
1995
1904
1869
1915
2023
2138
2199
2167
2067
1939
1872
1891
1974
2096
2177
2192
2118
1991
1903
1874
1936
2062
2150
2177
2112
1983
1872
1827
1872
1990
2103
2153
2126
2033
1927
1856
1876
1971
2094
2165
2158
2060
1936
1840
1825
1903
2006
2099
2132
2091
1984
1901
1871
1927
2058
2182
2252
2215
2107
1968
1879
1885
1968
2089
2177
2187
2096
1968
1878
1876
1937
2033
2125
2127
2042
1907
1779
1713
1744
1819
1900
1929
1875
1778
1681
1661
1719
1855
2015
2129
2165
2105
2000
1921
1910
1977
2091
2192
2212
2160
2043
1937
1906
1959
2065
2171
2240
2213
2112
1993
1930
1953
2045
2176
2257
2262
2175
2043
1949
1935
2006
2118
2213
2239
2177
2077
1983
1936
1981
2095
2198
2269
2243
2145
2026
1947
1967
2070
2190
2275
2279
2193
2078
1986
1970
2060
2180
2297
2332
2271
2160
2047
2000
2055
2162
2295
2359
2325
2215
2113
2054
2091
2205
2346
2437
2433
2335
2225
2151
2145
2214
2331
2427
2450
2382
2259
2155
2118
2174
2277
2384
2435
2391
2281
2151
2073
2087
2175
2279
2331
2310
2209
2087
1985
1967
2039
2160
2246
2246
2166
2045
1927
1877
1904
1993
2101
2161
2115
2010
1911
1837
1840
1930
2043
2119
2100
2000
1873
1798
1807
1895
2010
2106
2113
2033
1921
1818
1791
1847
1953
2078
2134
2101
1991
1887
1829
1867
1967
2087
2149
2123
2026
1904
1807
1803
1872
1995
2113
2143
2081
1966
1862
1821
1878
1999
2114
2177
2123
2000
1893
1825
1846
1950
2071
2145
2126
2034
1919
1831
1824
1904
2026
2126
2146
2092
1981
1879
1852
1916
2023
2128
2170
2125
2013
1898
1825
1862
1975
2112
2180
2163
2076
1953
1862
1847
1909
2025
2126
2146
2074
1956
1855
1825
1875
1991
2110
2159
2110
2000
1891
1837
1869
1967
2097
2177
2164
2063
1929
1845
1856
1940
2064
2140
2145
2070
1943
1847
1831
1894
2004
2115
2171
2128
2013
1903
1841
1879
1979
2087
2159
2139
2045
1927
1855
1865
1948
2070
2160
2176
2102
1984
1883
1841
1904
2018
2123
2154
2105
1997
1889
1840
1888
1999
2128
2202
2180
2085
1957
1878
1883
1968
2089
2171
2186
2116
1997
1910
1889
1953
2079
2190
2219
2155
2031
1923
1872
1909
2000
2125
2192
2162
2045
1904
1823
1841
1941
2081
2174
2174
2096
1951
1847
1827
1897
2011
2119
2149
2096
1979
1873
1831
1893
1990
2110
2167
2133
2035
1918
1842
1854
1929
2064
2160
2171
2096
1983
1894
1888
1971
2103
2210
2223
2130
1985
1856
1792
1837
1949
2092
2163
2146
2074
1975
1903
1904
1968
2074
2141
2103
1968
1793
1638
1574
1619
1728
1831
1888
1872
1798
1732
1733
1825
1968
2109
2194
2190
2096
1983
1920
1936
2026
2154
2226
2229
2133
2022
1933
1915
1998
2128
2246
2282
2234
2115
2000
1962
1988
2096
2208
2243
2207
2110
1998
1935
1950
2054
2178
2261
2273
2195
2078
1984
1971
2047
2178
2277
2317
2263
2149
2032
1984
2031
2144
2263
2327
2298
2207
2097
2020
2047
2149
2271
2359
2352
2288
2177
2087
2065
2133
2251
2368
2415
2368
2268
2170
2134
2187
2304
2427
2481
2455
2362
2254
2186
2199
2285
2398
2477
2468
2377
2256
2165
2143
2210
2308
2392
2411
2342
2219
2108
2034
2073
2170
2281
2325
2291
2182
2047
1961
1968
2057
2169
2247
2235
2137
2000
1901
1890
1954
2069
2157
2182
2119
1999
1888
1852
1891
2000
2112
2163
2128
2031
1910
1837
1841
1934
2047
2128
2124
2033
1918
1832
1815
1872
1994
2106
2143
2096
1986
1877
1827
1888
2007
2128
2181
2145
2032
1917
1857
1882
1984
2112
2193
2173
2078
1943
1871
1857
1943
2074
2179
2222
2170
2044
1936
1902
1953
2064
2167
2217
2167
2055
1935
1862
1891
1997
2130
2215
2213
2121
1994
1907
1895
1963
2081
2171
2201
2135
2029
1937
1919
1977
2082
2174
2203
2162
2064
1953
1907
1938
2038
2162
2237
2230
2143
2019
1938
1938
2015
2146
2239
2271
2222
2100
1991
1950
1997
2111
2219
2270
2224
2110
1973
1916
1947
2058
2171
2244
2229
2145
2034
1959
1953
2027
2133
2223
2243
2182
2086
2000
1969
2031
2128
2224
2279
2247
2155
2064
2007
2031
2109
2203
2263
2256
2166
2057
1981
1993
2079
2193
2286
2303
2233
2112
1997
1943
1997
2122
2226
2273
2224
2114
1999
1937
1968
2065
2185
2256
2242
2145
2026
1967
1967
2042
2151
2227
2227
2165
2041
1954
1927
1989
2107
2210
2254
2217
2113
1998
1936
1972
2096
2227
2319
2307
2201
2063
1939
1913
1957
2062
2153
2177
2126
2027
1959
1944
2019
2131
2227
2238
2153
2019
1882
1779
1766
1805
1871
1906
1869
1778
1674
1617
1666
1805
1983
2129
2176
2128
2030
1952
1945
2017
2143
2257
2311
2273
2175
2064
1996
2013
2099
2204
2279
2274
2205
2095
2014
2010
2096
2211
2288
2288
2213
2112
2032
2025
2094
2213
2295
2321
2267
2171
2064
2006
2037
2139
2251
2335
2326
2234
2108
2021
2029
2127
2253
2342
2351
2270
2159
2073
2043
2109
2217
2327
2377
2327
2226
2119
2067
2105
2219
2345
2418
2411
2321
2209
2145
2167
2256
2374
2448
2449
2384
2279
2189
2158
2224
2348
2443
2471
2416
2314
2215
2176
2208
2303
2408
2458
2428
2320
2179
2095
2089
2161
2269
2338
2331
2242
2105
1969
1935
1981
2098
2205
2226
2157
2031
1914
1855
1899
1985
2099
2151
2123
2014
1884
1791
1799
1899
2029
2114
2115
2027
1903
1808
1775
1837
1937
2042
2087
2031
1921
1822
1777
1825
1937
2060
2115
2089
1989
1876
1806
1808
1904
2033
2129
2145
2067
1936
1827
1799
1854
1968
2066
2110
2067
1965
1858
1808
1853
1963
2081
2160
2129
2021
1907
1839
1843
1933
2053
2143
2160
2066
1935
1840
1818
1884
1995
2096
2127
2071
1962
1859
1815
1861
1978
2097
2158
2125
2006
1879
1795
1795
1886
2000
2080
2070
1987
1870
1786
1776
1857
1988
2109
2139
2083
1960
1835
1777
1813
1920
2042
2112
2089
1984
1863
1793
1808
1887
2000
2087
2093
2000
1879
1790
1771
1840
1959
2064
2097
2041
1927
1821
1781
1830
1938
2044
2102
2077
1968
1847
1776
1794
1891
2000
2083
2090
2015
1903
1810
1802
1883
1995
2096
2112
2062
1945
1834
1794
1854
1968
2078
2125
2090
1990
1874
1809
1834
1923
2041
2128
2130
2055
1925
1831
1821
1890
2006
2114
2159
2098
1968
1837
1794
1842
1938
2064
2125
2087
1982
1856
1789
1817
1909
2028
2096
2064
1964
1850
1779
1776
1847
1978
2094
2126
2064
1939
1824
1781
1821
1935
2039
2095
2055
1945
1839
1779
1809
1914
2047
2154
2162
2090
1972
1886
1865
1914
1999
2067
2073
1993
1877
1781
1746
1825
1963
2091
2151
2086
1936
1791
1711
1725
1791
1866
1888
1822
1681
1535
1458
1470
1587
1745
1885
1968
1953
1889
1811
1783
1835
1958
2087
2143
2115
2021
1919
1859
1883
1971
2095
2162
2160
2077
1935
1840
1840
1917
2037
2147
2175
2112
1999
1901
1858
1898
1991
2117
2178
2160
2065
1948
1886
1915
2028
2151
2218
2192
2097
1968
1889
1899
1987
2112
2194
2221
2160
2055
1954
1909
1964
2087
2208
2275
2246
2139
2018
1961
1997
2109
2231
2315
2297
2210
2105
2031
2038
2127
2250
2354
2390
2323
2210
2122
2102
2176
2288
2391
2438
2395
2294
2182
2129
2150
2239
2349
2416
2387
2302
2173
2068
2061
2141
2251
2326
2325
2243
2109
1983
1936
1990
2107
2219
2253
2185
2064
1923
1852
1872
1963
2064
2128
2112
2016
1904
1821
1807
1873
1974
2053
2065
2002
1900
1808
1778
1845
1956
2062
2106
2063
1940
1806
1727
1762
1862
1984
2067
2058
1968
1850
1766
1762
1839
1968
2087
2108
2019
1891
1783
1744
1803
1919
2027
2090
2047
1943
1840
1776
1806
1906
2032
2112
2085
1989
1867
1791
1799
1891
2019
2110
2107
2018
1901
1799
1786
1845
1964
2084
2123
2082
1968
1853
1794
1829
1930
2047
2112
2092
1998
1863
1779
1783
1866
1982
2070
2079
1986
1863
1775
1754
1823
1936
2045
2096
2047
1939
1847
1799
1825
1918
2031
2095
2074
1968
1847
1783
1805
1872
1971
2046
2064
1991
1894
1812
1804
1876
1983
2087
2119
2065
1955
1856
1807
1849
1951
2045
2090
2030
1927
1823
1751
1766
1853
1992
2094
2109
2046
1937
1849
1834
1902
2007
2115
2160
2099
1981
1870
1818
1840
1939
2047
2122
2107
2004
1883
1805
1809
1893
2000
2103
2128
2059
1932
1842
1822
1885
1996
2098
2144
2090
1970
1850
1793
1825
1920
2039
2107
2085
1982
1857
1778
1790
1874
1993
2091
2101
2028
1904
1801
1774
1835
1951
2075
2128
2083
1972
1865
1809
1834
1926
2039
2121
2114
2034
1918
1834
1836
1910
2008
2073
2047
1954
1843
1767
1746
1825
1974
2109
2160
2098
1967
1824
1742
1758
1837
1914
1910
1818
1676
1534
1450
1479
1611
1780
1911
1972
1951
1873
1819
1826
1913
2030
2134
2176
2118
1999
1895
1846
1890
2002
2129
2205
2181
2090
1969
1904
1919
2013
2145
2225
2231
2159
2032
1930
1911
1980
2087
2175
2203
2163
2064
1963
1929
1970
2085
2192
2240
2188
2081
1950
1886
1914
2029
2167
2267
2281
2202
2076
1970
1951
2019
2131
2227
2270
2219
2115
2027
1998
2053
2166
2272
2321
2301
2215
2100
2032
2054
2149
2282
2385
2396
2320
2209
2113
2098
2166
2288
2405
2441
2366
2240
2135
2101
2153
2273
2387
2431
2382
2267
2153
2067
2067
2137
2245
2330
2329
2240
2103
1990
1977
2043
2160
2241
2256
2192
2069
1943
1875
1903
2000
2098
2150
2102
2015
1901
1839
1865
1956
2074
2138
2119
2011
1873
1791
1786
1854
1963
2081
2126
2064
1934
1808
1766
1814
1927
2062
2123
2091
1968
1830
1744
1755
1857
1986
2096
2113
2035
1923
1842
1815
1885
2000
2112
2158
2112
1997
1904
1865
1919
2029
2146
2203
2171
2045
1910
1836
1844
1938
2082
2178
2193
2131
2014
1919
1900
1959
2064
2162
2192
2138
2019
1906
1851
1896
2002
2110
2138
2096
1989
1898
1853
1884
1990
2117
2179
2173
2082
1958
1866
1856
1919
2019
2128
2159
2096
1973
1877
1845
1907
2000
2112
2170
2133
2045
1918
1857
1883
1973
2091
2160
2155
2061
1923
1841
1846
1930
2037
2131
2165
2105
1994
1902
1857
1893
1995
2108
2167
2130
2029
1902
1840
1882
1984
2110
2183
2162
2063
1936
1861
1873
1968
2099
2192
2206
2128
1999
1872
1840
1902
1999
2099
2131
2090
1968
1854
1813
1853
1954
2079
2159
2150
2064
1952
1865
1850
1915
2029
2126
2147
2074
1936
1840
1818
1894
2000
2089
2112
2070
1971
1885
1853
1887
1989
2107
2173
2169
2093
1964
1871
1863
1932
2033
2125
2144
2069
1936
1818
1771
1815
1920
2055
2128
2125
2045
1940
1887
1903
1988
2089
2110
2027
1872
1697
1559
1511
1580
1695
1794
1823
1794
1724
1675
1693
1807
1957
2107
2182
2160
2059
1933
1897
1951
2047
2151
2207
2195
2122
2000
1925
1957
2064
2186
2256
2241
2155
2021
1934
1926
2003
2123
2225
2256
2192
2074
1967
1919
1973
2116
2243
2304
2278
2178
2046
1966
1930
1995
2121
2235
2270
2208
2089
1984
1947
2011
2150
2277
2334
2288
2159
2035
1971
2018
2147
2288
2379
2359
2262
2155
2074
2074
2147
2279
2394
2437
2371
2241
2126
2107
2177
2317
2447
2498
2446
2317
2195
2130
2177
2288
2415
2477
2435
2327
2220
2150
2142
2217
2318
2384
2390
2301
2189
2094
2055
2100
2190
2266
2303
2237
2106
1977
1901
1919
2005
2113
2191
2186
2095
1954
1843
1822
1909
2047
2160
2173
2093
1963
1871
1827
1872
1967
2086
2133
2082
1974
1871
1820
1851
1942
2059
2130
2117
2025
1893
1823
1839
1932
2047
2141
2141
2054
1938
1850
1830
1887
2000
2105
2141
2096
1994
1891
1840
1875
1963
2063
2146
2149
2064
1943
1872
1880
1966
2080
2178
2182
2111
1984
1893
1865
1921
2041
2149
2171
2112
1991
1881
1826
1872
1987
2107
2175
2146
2054
1946
1887
1901
1979
2087
2169
2171
2077
1936
1834
1838
1920
2047
2159
2188
2130
2012
1890
1827
1872
1982
2103
2178
2160
2058
1924
1837
1841
1930
2063
2154
2147
2041
1919
1833
1824
1903
2026
2128
2163
2125
2021
1918
1863
1891
1984
2098
2163
2138
2035
1911
1821
1811
1904
2030
2127
2161
2110
1990
1890
1857
1920
2029
2133
2182
2137
2023
1901
1835
1854
1951
2075
2149
2131
2033
1923
1863
1890
1995
2117
2191
2159
2073
1951
1862
1845
1909
2026
2127
2160
2107
1997
1904
1868
1918
2017
2131
2205
2183
2081
1957
1891
1905
1977
2076
2133
2138
2064
1949
1861
1827
1875
1981
2096
2146
2101
1995
1891
1838
1869
1971
2096
2160
2127
2032
1920
1853
1859
1939
2033
2112
2105
2015
1906
1822
1825
1907
2029
2145
2195
2140
2015
1899
1840
1865
1954
2069
2118
2081
1973
1857
1795
1821
1933
2078
2197
2221
2139
1989
1866
1811
1840
1891
1924
1879
1754
1595
1470
1423
1495
1653
1825
1953
1971
1913
1822
1777
1814
1909
2041
2145
2158
2096
1986
1920
1926
1999
2117
2210
2230
2174
2055
1945
1904
1948
2064
2170
2221
2190
2096
1987
1921
1934
2032
2151
2224
2224
2145
2032
1954
1938
1998
2099
2197
2230
2185
2081
1969
1922
1975
2074
2190
2243
2206
2106
1987
1934
1963
2067
2202
2291
2298
2210
2091
1991
1974
2046
2165
2272
2321
2272
2183
2108
2078
2126
2226
2334
2385
2359
2256
2138
2069
2093
2192
2317
2416
2425
2352
2235
2128
2103
2165
2279
2368
2393
2327
2222
2112
2079
2123
2213
2313
2359
2318
2202
2075
1995
2004
2101
2203
2263
2230
2131
2000
1902
1872
1939
2054
2143
2169
2107
1983
1872
1830
1878
1981
2079
2128
2093
1977
1857
1776
1803
1910
2032
2121
2128
2043
1911
1809
1792
1853
1965
2059
2078
2019
1920
1838
1793
1838
1942
2047
2111
2069
1958
1861
1808
1846
1937
2061
2141
2129
2037
1921
1834
1831
1929
2058
2151
2166
2093
1966
1852
1815
1878
1995
2108
2159
2119
2007
1883
1811
1831
1921
2039
2126
2111
2023
1909
1829
1812
1891
2015
2122
2134
2063
1930
1825
1786
1846
1966
2085
2141
2111
2003
1893
1830
1856
1959
2083
2146
2130
2036
1921
1847
1853
1923
2041
2132
2150
2071
1940
1839
1802
1871
1983
2095
2143
2112
1997
1865
1791
1803
1888
2000
2087
2079
2006
1913
1834
1822
1896
2016
2110
2128
2065
1942
1836
1798
1857
1969
2079
2128
2095
1987
1875
1822
1846
1934
2061
2142
2139
2042
1909
1819
1819
1920
2031
2128
2153
2093
1979
1875
1827
1872
1970
2097
2163
2132
2019
1898
1821
1830
1903
2011
2084
2064
1969
1842
1759
1757
1842
1968
2066
2097
2017
1883
1761
1712
1776
1904
2028
2082
2045
1940
1825
1766
1796
1895
2016
2095
2071
1969
1843
1769
1766
1840
1962
2065
2096
2031
1917
1807
1766
1828
1945
2047
2091
2036
1936
1826
1773
1799
1892
2007
2098
2090
2001
1873
1797
1807
1898
2000
2102
2136
2073
1969
1872
1841
1901
2017
2128
2167
2105
1983
1872
1827
1865
1970
2086
2155
2137
2045
1919
1837
1833
1905
2022
2109
2113
2035
1924
1831
1793
1843
1951
2065
2117
2077
1974
1863
1795
1823
1919
2032
2101
2103
2023
1906
1841
1853
1931
2058
2117
2134
2083
1979
1872
1834
1890
2009
2133
2204
2161
2060
1942
1881
1891
1966
2061
2112
2096
2003
1902
1838
1850
1954
2083
2161
2160
2064
1935
1829
1787
1808
1872
1932
1929
1852
1737
1638
1618
1702
1846
2004
2112
2128
2064
1968
1891
1891
1970
2101
2191
2213
2142
2031
1943
1913
1975
2096
2182
2219
2166
2071
1957
1903
1930
2018
2134
2208
2187
2102
1995
1919
1927
2014
2135
2240
2263
2201
2085
1969
1917
1967
2078
2186
2225
2176
2064
1963
1930
1984
2106
2224
2299
2295
2233
2146
2099
2128
2236
2365
2457
2483
2414
2293
2208
2191
2271
2384
2501
2547
2496
2400
2300
2247
2279
2371
2484
2544
2528
2442
2340
2286
2298
2386
2503
2594
2599
2517
2391
2288
2271
2337
2447
2544
2559
2505
2401
2287
2227
2250
2343
2433
2495
2460
2362
2224
2143
2143
2221
2321
2378
2351
2247
2119
2025
1999
2063
2160
2253
2282
2224
2112
1995
1927
1957
2047
2174
2237
2207
2104
1985
1908
1904
1983
2101
2182
2193
2128
2006
1905
1861
1904
2016
2133
2183
2147
2034
1938
1904
1951
2044
2139
2183
2159
2064
1939
1857
1874
1963
2087
2181
2207
2146
2029
1935
1920
1991
2107
2190
2211
2160
2057
1954
1914
1952
2059
2160
2213
2174
2074
1952
1875
1894
1994
2127
2219
2214
2146
2027
1927
1902
1959
2075
2175
2210
2158
2037
1925
1875
1925
2030
2133
2181
2159
2065
1968
1898
1905
2000
2115
2198
2189
2095
1966
1871
1847
1914
2033
2159
2195
2140
2019
1905
1851
1887
1990
2118
2178
2141
2034
1906
1834
1842
1933
2067
2165
2178
2110
1983
1883
1855
1919
2032
2142
2162
2099
1974
1859
1811
1862
1981
2099
2141
2108
2014
1902
1825
1839
1935
2064
2151
2147
2064
1941
1857
1839
1904
2018
2122
2151
2096
1982
1885
1850
1885
1990
2100
2157
2122
2019
1895
1825
1842
1934
2054
2134
2126
2031
1921
1843
1837
1910
2025
2139
2163
2112
1999
1878
1829
1870
1968
2080
2122
2086
1974
1855
1786
1808
1894
2007
2089
2096
2032
1920
1839
1829
1902
2003
2113
2160
2110
1987
1872
1823
1871
1969
2083
2153
2139
2033
1919
1840
1857
1951
2064
2139
2130
2057
1936
1853
1835
1902
2010
2118
2154
2112
1999
1899
1842
1879
1981
2075
2109
2081
1987
1879
1803
1810
1895
2007
2091
2089
2016
1903
1821
1818
1896
2018
2123
2149
2086
1958
1847
1808
1854
1963
2059
2112
2081
1968
1849
1783
1798
1890
2010
2121
2135
2071
1966
1878
1870
1927
2039
2119
2127
2041
1925
1833
1804
1856
1979
2098
2155
2110
1990
1858
1792
1797
1866
1939
1983
1910
1771
1615
1520
1521
1633
1791
1930
2003
1985
1910
1835
1806
1854
1959
2074
2133
2105
2000
1878
1818
1840
1935
2056
2135
2128
2045
1941
1866
1858
1947
2070
2161
2174
2111
1983
1874
1831
1875
1979
2098
2160
2142
2044
1942
1874
1899
1998
2119
2192
2193
2110
1984
1893
1885
1953
2071
2171
2197
2129
2016
1911
1863
1919
2032
2154
2217
2179
2078
1970
1917
1942
2046
2173
2259
2256
2179
2066
1983
1969
2042
2176
2275
2318
2266
2160
2055
2007
2073
2185
2295
2351
2310
2218
2106
2058
2089
2183
2291
2368
2354
2265
2131
2032
2003
2069
2179
2275
2299
2223
2102
1990
1949
1997
2095
2187
2224
2174
2058
1922
1840
1861
1951
2065
2139
2121
2032
1921
1842
1825
1893
1983
2059
2064
1979
1866
1766
1741
1787
1919
2027
2067
2018
1905
1792
1728
1747
1842
1950
2032
2032
1954
1851
1781
1776
1857
1974
2059
2069
1995
1882
1776
1744
1801
1909
2033
2108
2071
1970
1853
1783
1808
1902
1998
2067
2064
1984
1869
1787
1786
1870
1977
2078
2107
2042
1933
1836
1787
1840
1938
2045
2103
2074
1989
1883
1812
1829
1919
2037
2112
2101
2001
1873
1795
1787
1877
2010
2114
2142
2059
1921
1808
1776
1826
1929
2039
2102
2063
1951
1841
1785
1819
1919
2035
2106
2091
1997
1882
1798
1796
1867
1977
2077
2093
2021
1903
1799
1776
1849
1984
2087
2133
2075
1969
1856
1783
1805
1904
2015
2095
2075
1983
1871
1808
1823
1904
2022
2118
2129
2060
1936
1838
1808
1858
1967
2067
2101
2042
1930
1825
1771
1808
1921
2034
2112
2090
1993
1872
1788
1785
1872
1997
2097
2127
2063
1952
1857
1833
1890
2001
2112
2151
2097
1984
1866
1807
1840
1919
2015
2077
2064
1970
1865
1799
1808
1898
2030
2141
2163
2096
1981
1871
1833
1884
1982
2082
2110
2061
1951
1851
1799
1835
1938
2064
2135
2119
2032
1919
1840
1842
1920
2039
2137
2160
2082
1963
1857
1830
1891
2001
2111
2153
2096
1983
1873
1831
1868
1972
2095
2170
2145
2059
1934
1843
1840
1910
2011
2109
2122
2046
1936
1843
1825
1891
2000
2103
2142
2100
1985
1870
1813
1840
1941
2059
2125
2098
2003
1888
1817
1833
1909
2019
2098
2112
2041
1936
1856
1834
1893
2014
2142
2206
2163
2058
1954
1904
1936
2014
2094
2134
2094
1978
1855
1781
1791
1889
2025
2137
2158
2078
1939
1831
1821
1868
1949
2000
1996
1892
1731
1584
1511
1557
1689
1842
1943
1968
1907
1825
1790
1823
1918
2032
2138
2173
2110
1970
1868
1837
1898
1999
2105
2147
2114
2014
1918
1867
1911
2017
2135
2191
2159
2064
1958
1900
1902
1983
2096
2191
2196
2122
1993
1899
1874
1938
2057
2160
2197
2150
2042
1936
1891
1918
2019
2140
2203
2175
2096
1980
1918
1935
2025
2146
2231
2240
2173
2074
1977
1945
2017
2132
2243
2278
2225
2118
2023
1983
2032
2141
2254
2320
2302
2217
2119
2039
2067
2160
2275
2354
2369
2311
2213
2126
2112
2183
2291
2383
2407
2339
2224
2125
2075
2102
2194
2294
2339
2309
2214
2096
2018
2022
2086
2171
2222
2191
2102
1972
1883
1879
1947
2067
2158
2186
2115
1999
1883
1827
1867
1968
2067
2127
2085
1975
1851
1776
1791
1867
1983
2063
2057
1968
1842
1749
1735
1805
1919
2014
2038
1995
1901
1811
1777
1840
1951
2063
2112
2074
1959
1829
1742
1759
1854
1989
2078
2089
2000
1878
1777
1769
1849
1969
2091
2122
2077
1965
1850
1791
1819
1920
2032
2107
2081
1974
1865
1804
1821
1907
2027
2109
2105
2016
1899
1811
1794
1859
1971
2075
2113
2059
1947
1846
1807
1853
1951
2057
2103
2067
1965
1852
1791
1812
1907
2031
2128
2134
2043
1920
1823
1808
1884
2000
2111
2141
2091
1972
1859
1800
1838
1938
2055
2112
2079
1984
1881
1813
1827
1907
2019
2101
2103
2021
1910
1809
1781
1856
1974
2087
2128
2064
1939
1828
1775
1823
1921
2037
2109
2096
1990
1879
1813
1833
1915
2039
2122
2115
2023
1915
1842
1840
1909
2022
2118
2140
2064
1952
1853
1827
1878
1983
2098
2148
2113
2000
1873
1809
1839
1933
2047
2127
2111
2023
1899
1802
1778
1858
1985
2105
2139
2097
1990
1884
1842
1891
1997
2117
2170
2139
2021
1897
1812
1829
1931
2055
2127
2130
2064
1962
1881
1867
1936
2047
2157
2177
2119
2006
1901
1857
1895
1997
2114
2178
2143
2026
1908
1855
1889
1975
2097
2170
2166
2078
1935
1829
1807
1876
1989
2094
2114
2045
1935
1840
1808
1853
1971
2096
2147
2103
2009
1897
1823
1834
1931
2053
2137
2137
2060
1936
1861
1862
1939
2067
2167
2181
2102
1990
1904
1873
1931
2037
2135
2174
2117
1995
1866
1795
1821
1922
2063
2159
2179
2100
1986
1899
1871
1925
2032
2115
2107
1990
1823
1671
1591
1614
1694
1806
1875
1877
1818
1743
1716
1776
1919
2069
2166
2171
2095
1979
1895
1884
1943
2040
2135
2175
2133
2032
1937
1906
1943
2039
2153
2202
2177
2081
1949
1877
1913
2011
2123
2192
2186
2101
1989
1922
1911
1991
2104
2196
2230
2175
2064
1953
1909
1955
2066
2167
2224
2193
2098
1983
1922
1968
2069
2183
2257
2253
2173
2053
1951
1936
2007
2131
2234
2265
2217
2111
2001
1968
2032
2160
2288
2351
2315
2209
2090
2023
2058
2164
2299
2399
2404
2321
2196
2112
2112
2194
2311
2401
2426
2361
2246
2151
2114
2158
2253
2348
2385
2339
2223
2098
2030
2053
2144
2244
2295
2255
2158
2006
1904
1897
1968
2089
2167
2189
2114
1983
1893
1843
1889
1984
2083
2107
2075
1972
1870
1823
1840
1920
2018
2075
2046
1955
1839
1763
1754
1830
1947
2057
2077
2000
1882
1778
1744
1810
1921
2027
2081
2026
1904
1790
1729
1766
1871
1987
2068
2063
1970
1860
1782
1764
1823
1945
2064
2096
2038
1923
1831
1792
1840
1937
2037
2086
2042
1946
1840
1776
1798
1899
2027
2112
2106
2022
1907
1829
1819
1889
1996
2089
2110
2032
1915
1818
1795
1856
1965
2064
2106
2059
1945
1839
1781
1807
1904
2019
2106
2096
1991
1883
1808
1799
1872
1984
2076
2075
1998
1900
1815
1792
1856
1968
2071
2114
2066
1949
1841
1791
1823
1919
2018
2095
2083
1987
1866
1783
1793
1877
1996
2077
2096
2021
1902
1812
1780
1841
1961
2064
2097
2032
1922
1809
1758
1792
1897
2015
2093
2063
1968
1872
1811
1809
1875
1982
2089
2113
2033
1922
1822
1799
1853
1961
2071
2118
2064
1941
1822
1773
1805
1895
2018
2085
2063
1969
1865
1802
1809
1899
2010
2096
2091
1993
1872
1776
1755
1814
1920
2029
2086
2039
1940
1838
1782
1819
1927
2044
2119
2103
2005
1887
1802
1797
1879
2000
2100
2128
2064
1963
1875
1851
1911
2017
2126
2171
2118
2000
1883
1815
1853
1949
2080
2155
2125
2009
1866
1781
1790
1867
1970
2059
2075
1999
1893
1805
1791
1867
1968
2077
2113
2064
1938
1825
1781
1826
1921
2033
2098
2070
1968
1841
1758
1759
1843
1969
2066
2087
2032
1928
1855
1839
1915
2031
2117
2135
2060
1901
1759
1713
1776
1903
2032
2112
2091
1997
1885
1794
1783
1843
1953
2021
2001
1889
1735
1595
1507
1562
1657
1773
1841
1831
1789
1711
1687
1747
1875
2018
2118
2119
2027
1909
1830
1840
1930
2064
2158
2170
2090
1969
1877
1845
1895
2006
2127
2177
2117
2001
1903
1861
1906
2010
2134
2195
2179
2079
1950
1872
1879
1983
2096
2177
2186
2111
1985
1885
1856
1923
2055
2164
2208
2148
2021
1904
1855
1892
1994
2097
2171
2177
2113
2013
1955
1968
2047
2167
2241
2254
2175
2064
1972
1963
2034
2160
2273
2321
2266
2142
2027
1977
2029
2155
2275
2344
2318
2224
2111
2038
2064
2165
2291
2373
2374
2290
2160
2037
2005
2067
2189
2289
2345
2300
2190
2081
2021
2030
2126
2222
2270
2225
2112
1979
1894
1882
1954
2080
2160
2159
2077
1947
1841
1814
1872
1979
2079
2102
2039
1926
1826
1775
1797
1879
1975
2039
2019
1925
1824
1781
1806
1899
2000
2082
2079
1984
1868
1777
1765
1836
1952
2058
2082
2020
1916
1817
1777
1819
1918
2016
2075
2036
1947
1851
1805
1829
1919
2059
2146
2160
2070
1930
1815
1791
1872
1995
2106
2143
2098
1997
1915
1879
1920
2010
2112
2162
2135
2032
1913
1846
1878
1983
2123
2211
2207
2127
2000
1895
1878
1952
2070
2159
2183
2121
2000
1883
1831
1880
1994
2112
2178
2171
2096
1975
1899
1912
1991
2106
2188
2192
2112
1971
1875
1863
1933
2058
2153
2162
2078
1952
1856
1819
1871
1963
2065
2128
2112
2005
1888
1815
1843
1931
2035
2124
2118
2039
1922
1834
1821
1875
1984
2091
2119
2061
1942
1835
1798
1846
1951
2075
2125
2095
1993
1899
1837
1854
1942
2053
2131
2120
2038
1917
1822
1809
1892
2006
2125
2156
2091
1959
1844
1803
1858
1978
2096
2147
2112
2016
1907
1840
1856
1942
2054
2145
2151
2085
1967
1891
1885
1951
2069
2158
2176
2102
1982
1888
1850
1902
1997
2126
2192
2162
2058
1946
1887
1904
1986
2106
2192
2196
2127
2010
1926
1907
1964
2064
2158
2192
2130
2010
1902
1856
1911
2019
2128
2174
2134
2032
1916
1849
1872
1968
2096
2163
2146
2065
1939
1863
1853
1925
2032
2142
2179
2137
2030
1919
1863
1908
2029
2144
2207
2188
2106
1984
1905
1919
1990
2095
2154
2130
2018
1894
1823
1833
1925
2063
2167
2189
2105
1970
1849
1782
1805
1857
1914
1921
1847
1695
1554
1501
1565
1727
1904
2032
2068
2011
1908
1835
1838
1922
2061
2183
2231
2186
2075
1954
1919
1968
2095
2206
2246
2197
2076
1935
1858
1872
1983
2129
2229
2233
2147
2033
1940
1927
2007
2144
2240
2256
2183
2060
1949
1909
1967
2096
2222
2285
2242
2142
2027
1967
1984
2085
2192
2270
2255
2159
2017
1935
1936
2032
2175
2277
2294
2223
2106
2004
1983
2046
2171
2288
2351
2318
2198
2075
2007
2057
2175
2303
2389
2390
2310
2194
2109
2103
2187
2320
2415
2431
2365
2256
2163
2125
2174
2286
2377
2407
2353
2245
2123
2047
2091
2190
2304
2372
2352
2256
2122
2009
1967
2033
2150
2243
2257
2178
2052
1939
1887
1919
2007
2112
2151
2103
1984
1872
1808
1823
1910
2007
2087
2074
1995
1889
1817
1827
1905
2032
2117
2113
2007
1872
1776
1761
1840
1964
2074
2123
2071
1957
1837
1751
1790
1877
1983
2064
2062
1971
1862
1801
1809
1897
2005
2098
2107
2019
1904
1814
1803
1870
1984
2094
2123
2080
1963
1851
1781
1803
1914
2032
2096
2070
1986
1885
1837
1856
1936
2067
2160
2153
2043
1904
1786
1741
1809
1951
2086
2139
2112
2019
1905
1840
1863
1963
2080
2134
2123
2034
1926
1849
1833
1873
1966
2059
2076
2010
1907
1819
1797
1858
1962
2071
2113
2078
1949
1843
1789
1821
1920
2045
2117
2107
2026
1918
1824
1823
1901
2006
2111
2114
2021
1915
1831
1808
1856
1943
2042
2096
2045
1966
1872
1844
1872
1953
2062
2128
2109
2006
1904
1840
1840
1906
2021
2106
2105
2032
1919
1811
1777
1833
1947
2085
2160
2130
2027
1905
1842
1863
1951
2102
2191
2160
2042
1902
1793
1783
1874
2022
2145
2170
2089
1949
1824
1801
1887
2037
2180
2231
2179
2038
1895
1835
1857
1963
2070
2141
2125
2047
1937
1845
1829
1887
2001
2126
2170
2121
2000
1907
1872
1935
2064
2160
2185
2117
1993
1872
1814
1857
1962
2087
2159
2133
2009
1842
1744
1770
1876
2001
2112
2131
2073
1967
1873
1846
1885
1979
2068
2091
2043
1940
1859
1843
1910
2035
2160
2197
2176
2083
1957
1857
1812
1859
1935
2005
2019
1963
1902
1867
1881
1955
2071
2160
2170
2078
1921
1776
1677
1649
1695
1771
1809
1771
1665
1572
1523
1535
1645
1794
1951
2045
2046
1981
1900
1869
1921
2021
2135
2219
2211
2109
1968
1897
1914
2000
2096
2158
2160
2111
2000
1914
1920
2003
2128
2209
2207
2128
1984
1875
1837
1887
2025
2199
2281
2249
2140
2021
1949
1967
2053
2151
2213
2189
2100
1981
1925
1946
2037
2173
2259
2264
2182
2082
2011
1991
2064
2173
2274
2303
2240
2120
2011
1984
2064
2177
2281
2337
2307
2243
2142
2054
2039
2137
2273
2374
2385
2318
2202
2123
2101
2165
2294
2405
2451
2410
2300
2171
2093
2119
2233
2355
2423
2409
2317
2192
2111
2105
2172
2260
2320
2309
2195
2042
1931
1939
2018
2144
2225
2254
2207
2107
1974
1915
1936
2031
2128
2155
2102
1995
1892
1817
1793
1859
1968
2061
2059
1967
1845
1760
1763
1863
1991
2094
2107
2027
1895
1774
1734
1795
1913
2015
2086
2062
1968
1857
1788
1787
1842
1954
2061
2090
2034
1926
1839
1831
1903
2015
2106
2107
2017
1911
1824
1795
1872
2009
2128
2165
2115
1987
1855
1791
1824
1937
2077
2158
2148
2095
1981
1898
1850
1876
1945
2031
2077
2039
1958
1853
1794
1835
1953
2096
2162
2106
1984
1895
1857
1887
1962
2064
2115
2081
1983
1882
1803
1776
1831
1942
2066
2141
2112
2016
1904
1843
1869
1966
2096
2162
2135
2035
1891
1792
1783
1870
1998
2112
2127
2038
1909
1814
1813
1910
2035
2134
2145
2073
1955
1840
1795
1842
1943
2075
2147
2121
2011
1889
1823
1845
1947
2064
2146
2143
2047
1909
1818
1817
1904
2027
2107
2123
2053
1949
1856
1827
1878
1987
2099
2166
2139
2027
1887
1813
1824
1919
2047
2128
2128
2042
1923
1845
1857
1936
2060
2149
2164
2110
2005
1904
1844
1892
1986
2091
2125
2096
2016
1899
1844
1871
1968
2084
2170
2167
2067
1918
1797
1766
1857
1984
2110
2142
2099
1968
1861
1815
1850
1941
2047
2118
2100
2027
1935
1878
1886
1947
2032
2101
2112
2057
1939
1873
1874
1955
2073
2170
2209
2146
2018
1901
1827
1839
1922
2023
2075
2038
1950
1851
1804
1846
1949
2080
2155
2144
2061
1934
1837
1774
1769
1810
1839
1804
1714
1616
1552
1566
1646
1776
1915
2002
2014
1961
1890
1889
1947
2071
2186
2240
2214
2114
1975
1887
1892
1973
2110
2223
2261
2201
2089
1969
1925
1982
2085
2191
2230
2183
2065
1936
1867
1909
2036
2176
2263
2274
2192
2064
1968
1939
2010
2124
2221
2249
2198
2094
1999
1968
2001
2106
2212
2273
2246
2147
2037
1984
2022
2128
2244
2311
2305
2224
2109
2022
2028
2128
2257
2355
2368
2293
2188
2111
2082
2128
2254
2378
2433
2399
2295
2183
2128
2149
2240
2356
2435
2436
2350
2231
2150
2141
2218
2325
2417
2427
2356
2231
2128
2095
2136
2240
2343
2378
2320
2189
2062
1975
1980
2085
2195
2271
2254
2144
2000
1895
1876
1936
2031
2109
2124
2064
1958
1867
1823
1871
1965
2077
2116
2082
1971
1860
1800
1799
1875
1999
2086
2093
2007
1897
1807
1800
1875
1987
2070
2096
2032
1918
1807
1769
1821
1936
2059
2118
2085
1975
1870
1807
1827
1923
2043
2103
2090
2003
1904
1835
1838
1909
2030
2110
2112
2039
1921
1821
1791
1854
1968
2086
2131
2094
1983
1871
1815
1836
1931
2059
2127
2106
2007
1904
1838
1836
1904
2000
2097
2128
2066
1953
1862
1838
1893
1998
2102
2151
2096
1977
1856
1779
1802
1891
2007
2096
2087
1999
1878
1791
1786
1868
1990
2087
2101
2019
1904
1811
1792
1857
1965
2075
2110
2061
1951
1851
1792
1815
1899
2003
2065
2060
1986
1889
1818
1807
1872
1980
2069
2082
2000
1895
1818
1809
1872
1972
2083
2123
2082
1984
1875
1808
1831
1936
2059
2131
2128
2035
1917
1823
1813
1886
2000
2096
2099
2019
1903
1811
1787
1845
1959
2064
2106
2047
1936
1835
1795
1843
1949
2075
2146
2128
2033
1920
1840
1851
1931
2039
2125
2125
2045
1906
1795
1761
1828
1947
2077
2146
2117
2017
1902
1834
1852
1946
2046
2118
2085
2000
1892
1813
1831
1922
2061
2149
2174
2099
1963
1863
1840
1918
2031
2143
2183
2122
1999
1872
1814
1854
1954
2091
2178
2175
2082
1968
1892
1893
1968
2080
2161
2166
2101
1985
1905
1873
1930
2029
2117
2159
2115
2003
1905
1863
1893
1995
2113
2177
2147
2043
1926
1855
1843
1920
2037
2128
2137
2066
1957
1861
1839
1894
1998
2093
2121
2071
1973
1890
1872
1965
2107
2238
2301
2255
2123
1972
1877
1876
1949
2063
2143
2139
2064
1963
1883
1870
1923
2022
2118
2162
2112
1991
1847
1744
1729
1780
1856
1904
1888
1811
1727
1681
1717
1827
1978
2112
2159
2097
1988
1899
1874
1936
2070
2176
2219
2183
2085
1975
1933
1971
2077
2186
2240
2215
2118
1995
1906
1905
1993
2132
2233
2242
2159
2032
1933
1917
1975
2069
2166
2208
2160
2054
1941
1901
1943
2066
2189
2255
2235
2129
2016
1951
1968
2066
2187
2275
2276
2192
2067
1965
1952
2035
2161
2263
2308
2257
2155
2033
1995
2045
2163
2300
2368
2345
2245
2127
2037
2047
2130
2247
2347
2367
2299
2192
2117
2115
2175
2298
2398
2427
2366
2261
2155
2111
2150
2247
2352
2406
2363
2257
2138
2055
2064
2136
2224
2303
2306
2236
2112
2010
1969
2027
2119
2210
2249
2194
2081
1963
1920
1946
2031
2128
2163
2125
2013
1889
1812
1815
1901
2026
2107
2097
2000
1878
1797
1787
1873
1994
2099
2123
2063
1935
1808
1747
1793
1894
2003
2069
2046
1959
1846
1783
1781
1876
2009
2093
2094
2021
1910
1834
1813
1878
1985
2085
2115
2064
1967
1856
1813
1871
1968
2073
2122
2092
1985
1867
1789
1787
1887
2021
2115
2128
2066
1959
1867
1840
1891
2003
2107
2129
2071
1965
1870
1831
1878
1975
2078
2124
2070
1968
1854
1791
1819
1910
2025
2094
2093
2009
1905
1829
1810
1878
1991
2111
2149
2083
1949
1830
1776
1827
1940
2069
2143
2115
2014
1882
1799
1801
1884
2002
2095
2096
2001
1887
1795
1769
1836
1943
2039
2085
2032
1920
1823
1791
1840
1941
2045
2105
2071
1946
1811
1751
1791
1903
2019
2108
2102
2005
1890
1806
1794
1862
1971
2081
2123
2066
1957
1854
1795
1825
1923
2031
2086
2058
1962
1861
1810
1842
1941
2061
2123
2111
2021
1891
1778
1760
1840
1975
2079
2090
2019
1918
1829
1806
1855
1946
2045
2097
2066
1968
1852
1787
1809
1910
2032
2115
2114
2031
1901
1802
1775
1842
1954
2062
2091
2027
1930
1843
1808
1853
1953
2057
2112
2079
1979
1873
1808
1826
1914
2018
2099
2086
1997
1887
1797
1793
1870
1999
2100
2131
2067
1962
1861
1822
1878
1995
2097
2154
2096
1991
1887
1815
1823
1919
2045
2139
2138
2062
1935
1840
1831
1902
2019
2112
2128
2078
1967
1868
1815
1849
1943
2054
2107
2087
1984
1871
1791
1798
1882
1999
2082
2077
1979
1849
1765
1773
1857
1983
2085
2110
2038
1919
1818
1786
1842
1968
2081
2134
2117
2016
1913
1846
1865
1950
2034
2089
2066
1968
1855
1785
1787
1877
2007
2125
2150
2064
1935
1813
1779
1809
1890
1953
1974
1903
1767
1627
1557
1577
1675
1814
1929
1966
1909
1819
1763
1791
1895
2023
2127
2147
2080
1955
1863
1841
1899
1997
2110
2149
2105
1986
1874
1820
1856
1961
2096
2173
2160
2079
1959
1887
1879
1968
2086
2171
2175
2100
1989
1890
1856
1907
2013
2113
2164
2142
2063
1949
1884
1915
2009
2113
2160
2138
2064
1951
1885
1892
1983
2119
2217
2242
2177
2064
1963
1932
1987
2096
2190
2238
2194
2104
1995
1942
1981
2103
2224
2298
2297
2211
2103
2026
2018
2101
2232
2336
2358
2288
2187
2096
2047
2101
2210
2335
2382
2336
2224
2112
2047
2074
2157
2255
2305
2295
2221
2102
2006
1995
2053
2160
2235
2241
2167
2035
1922
1881
1931
2037
2135
2160
2106
1987
1870
1797
1811
1898
1994
2066
2033
1943
1826
1751
1757
1841
1952
2032
2046
1971
1846
1743
1711
1775
1903
2001
2047
1993
1873
1754
1698
1743
1855
1969
2041
2028
1937
1830
1760
1769
1853
1961
2053
2064
1986
1866
1767
1742
1803
1907
2015
2074
2032
1932
1821
1770
1808
1905
2017
2094
2078
1999
1873
1798
1793
1870
1996
2095
2107
2014
1885
1789
1759
1832
1935
2027
2067
2015
1919
1808
1747
1790
1895
2031
2110
2091
1987
1872
1797
1790
1859
1974
2065
2084
2001
1878
1790
1765
1821
1943
2064
2113
2062
1934
1810
1762
1787
1886
2000
2078
2071
1983
1862
1791
1805
1893
2001
2096
2096
2005
1879
1790
1776
1846
1958
2071
2118
2081
1969
1851
1787
1815
1916
2025
2091
2078
1983
1870
1790
1795
1879
1996
2077
2098
2037
1931
1834
1807
1872
1969
2070
2103
2047
1945
1839
1786
1821
1925
2047
2113
2099
2005
1882
1806
1814
1904
2025
2112
2127
2065
1941
1839
1807
1869
1970
2085
2129
2081
1968
1853
1802
1841
1953
2074
2145
2110
1997
1865
1789
1803
1886
2001
2086
2103
2035
1931
1851
1843
1911
2022
2123
2145
2072
1958
1871
1830
1874
1984
2099
2163
2135
2032
1915
1841
1854
1946
2063
2149
2151
2079
1954
1863
1837
1899
2009
2106
2135
2075
1957
1855
1808
1844
1936
2032
2089
2063
1959
1853
1787
1805
1909
2029
2118
2119
2042
1937
1857
1840
1890
1990
2074
2099
2047
1939
1845
1805
1862
1975
2109
2178
2166
2080
1969
1893
1889
1954
2045
2117
2111
2017
1890
1810
1808
1889
2022
2133
2157
2067
1922
1802
1748
1777
1867
1955
1977
1891
1746
1605
1533
1567
1695
1863
1990
2037
1989
1904
1850
1855
1937
2064
2163
2203
2143
2021
1904
1856
1889
1983
2087
2144
2113
2023
1926
1876
1904
1997
2123
2214
2210
2114
1983
1893
1882
1951
2056
2158
2192
2143
2032
1933
1891
1936
2047
2160
2214
2179
2087
1968
1906
1919
2006
2130
2207
2211
2148
2027
1946
1941
2021
2126
2219
2241
2187
2087
1986
1956
2009
2128
2245
2291
2265
2169
2063
2001
2032
2122
2227
2310
2321
2255
2161
2099
2082
2160
2283
2378
2403
2347
2243
2159
2133
2186
2278
2367
2416
2382
2282
2160
2101
2123
2205
2298
2357
2343
2250
2128
2033
2008
2076
2169
2256
2278
2193
2054
1938
1887
1931
2030
2128
2171
2112
1998
1887
1824
1830
1915
2021
2103
2103
2015
1902
1813
1808
1875
1982
2070
2082
2004
1898
1795
1776
1817
1927
2034
2086
2039
1936
1822
1767
1795
1911
2037
2111
2083
1977
1858
1776
1770
1849
1954
2047
2069
2002
1886
1789
1755
1810
1936
2055
2122
2082
1971
1857
1787
1806
1894
2017
2117
2111
2015
1887
1801
1797
1875
2011
2126
2158
2096
1970
1863
1825
1875
1981
2094
2137
2085
1966
1843
1785
1820
1921
2035
2107
2087
2001
1882
1811
1808
1887
2000
2103
2128
2061
1947
1851
1821
1870
1968
2070
2111
2061
1939
1833
1783
1822
1936
2062
2128
2110
2013
1905
1839
1840
1926
2047
2127
2137
2061
1936
1835
1791
1856
1968
2089
2138
2090
1975
1866
1809
1843
1947
2069
2143
2123
2017
1898
1808
1805
1887
1993
2091
2113
2057
1938
1837
1805
1871
1987
2096
2136
2095
1982
1873
1827
1869
1968
2074
2129
2112
2033
1927
1856
1856
1935
2053
2146
2160
2098
1983
1898
1866
1922
2022
2130
2176
2129
2019
1913
1853
1885
1979
2099
2172
2157
2065
1947
1860
1851
1916
2015
2099
2111
2043
1934
1843
1815
1871
1975
2083
2119
2091
1995
1887
1824
1854
1951
2067
2142
2117
2025
1894
1823
1835
1917
2010
2102
2112
2043
1946
1879
1881
1958
2078
2161
2167
2093
1966
1843
1792
1840
1951
2087
2163
2158
2079
1937
1840
1821
1879
1968
2007
1973
1846
1687
1557
1513
1564
1680
1823
1923
1937
1873
1804
1780
1847
1968
2096
2165
2145
2047
1942
1871
1877
1959
2074
2159
2181
2121
2017
1920
1898
1949
2054
2160
2193
2141
2031
1920
1861
1903
2009
2138
2220
2203
2112
1983
1905
1911
2004
2128
2224
2240
2160
2033
1935
1909
1978
2107
2224
2263
2207
2095
1978
1926
1973
2075
2175
2242
2238
2165
2062
1985
2000
2096
2211
2295
2301
2220
2103
2014
2007
2085
2197
2306
2363
2333
2239
2155
2112
2146
2241
2349
2415
2404
2316
2213
2160
2174
2248
2368
2448
2448
2368
2240
2142
2127
2190
2299
2389
2423
2351
2223
2102
2035
2078
2174
2261
2317
2283
2176
2043
1958
1950
2015
2119
2192
2189
2103
1967
1872
1849
1904
2022
2119
2130
2061
1936
1830
1787
1823
1909
2003
2073
2036
1947
1839
1771
1789
1885
1990
2069
2076
1991
1872
1789
1777
1846
1955
2039
2075
2021
1906
1806
1769
1819
1935
2061
2115
2083
1977
1863
1814
1842
1936
2045
2118
2110
2026
1904
1821
1810
1889
2003
2106
2138
2093
1968
1868
1823
1865
1968
2080
2128
2095
1996
1883
1813
1831
1919
2031
2128
2130
2061
1939
1847
1818
1889
1997
2094
2112
2062
1934
1830
1791
1843
1950
2061
2128
2103
1995
1875
1814
1837
1913
2034
2111
2108
2019
1904
1809
1791
1855
1986
2099
2147
2107
1983
1861
1808
1856
1955
2077
2128
2106
2011
1891
1823
1850
1951
2069
2134
2117
2040
1927
1840
1834
1904
2030
2131
2155
2096
1982
1889
1840
1872
1963
2066
2112
2080
1979
1859
1783
1802
1893
2009
2096
2093
1997
1872
1774
1761
1843
1966
2069
2096
2032
1907
1806
1754
1816
1936
2058
2114
2066
1951
1837
1780
1805
1906
2034
2132
2134
2037
1914
1814
1791
1841
1937
2032
2063
2017
1936
1858
1839
1890
1967
2055
2091
2023
1884
1718
1601
1581
1616
1698
1755
1769
1725
1654
1619
1658
1776
1930
2063
2112
2066
1956
1858
1831
1888
2003
2133
2176
2122
1994
1888
1839
1867
1969
2083
2161
2163
2096
1975
1902
1902
1975
2091
2185
2197
2139
2042
1953
1925
1968
2075
2177
2238
2199
2097
1985
1922
1935
2022
2144
2224
2233
2147
2027
1949
1952
2031
2150
2229
2256
2183
2063
1967
1947
2017
2146
2254
2304
2257
2167
2077
2039
2079
2176
2288
2353
2335
2255
2147
2085
2096
2177
2290
2381
2399
2335
2238
2159
2130
2191
2302
2411
2455
2406
2294
2173
2117
2147
2249
2352
2395
2368
2263
2146
2059
2047
2115
2213
2287
2283
2192
2066
1951
1911
1971
2071
2163
2199
2145
2019
1893
1830
1855
1938
2044
2112
2090
1984
1857
1767
1754
1835
1946
2045
2067
1991
1872
1777
1745
1810
1915
2010
2058
2000
1898
1792
1744
1776
1875
1999
2065
2058
1959
1841
1770
1775
1847
1955
2064
2091
2026
1909
1805
1774
1811
1918
2023
2071
2032
1939
1845
1799
1837
1936
2064
2126
2099
2000
1886
1799
1787
1855
1976
2090
2113
2053
1936
1829
1801
1845
1954
2069
2123
2095
1982
1860
1789
1811
1901
2027
2096
2075
1989
1869
1787
1783
1863
1983
2075
2096
2028
1921
1841
1827
1895
2010
2116
2159
2097
1985
1873
1812
1843
1935
2058
2129
2112
2028
1919
1840
1837
1909
2021
2112
2130
2081
1963
1871
1851
1902
2010
2110
2126
2069
1959
1851
1795
1818
1894
2007
2079
2067
1978
1872
1805
1815
1897
2016
2109
2112
2023
1904
1814
1799
1850
1939
2037
2083
2028
1920
1809
1767
1824
1935
2047
2128
2114
2027
1926
1874
1906
1978
2067
2127
2118
2025
1889
1791
1772
1849
1982
2103
2160
2110
1984
1847
1774
1786
1882
1974
1999
1922
1767
1594
1478
1477
1563
1701
1819
1874
1855
1783
1744
1746
1838
1969
2100
2145
2112
2000
1890
1839
1872
1981
2123
2202
2188
2091
1958
1875
1893
1971
2096
2182
2191
2112
1991
1896
1858
1923
2033
2141
2178
2128
2017
1939
1907
1957
2066
2180
2246
2222
2112
1975
1895
1899
1981
2102
2193
2202
2129
2030
1957
1946
2023
2141
2239
2272
2206
2096
1983
1938
1993
2099
2201
2262
2251
2169
2062
1997
2015
2097
2215
2299
2295
2210
2091
1995
1984
2055
2142
2209
2221
2143
2026
1919
1878
1933
2047
2154
2187
2149
2047
1927
1853
1871
1966
2082
2160
2159
2071
1931
1827
1805
1867
1984
2087
2097
2015
1873
1747
1682
1723
1827
1936
1999
1967
1868
1743
1659
1655
1744
1859
1934
1934
1841
1727
1648
1633
1698
1813
1920
1959
1905
1779
1664
1616
1671
1788
1904
1960
1919
1818
1711
1633
1648
1743
1869
1962
1963
1881
1759
1665
1663
1747
1866
1965
1981
1919
1821
1726
1690
1733
1861
1978
2036
1997
1886
1762
1690
1719
1821
1937
2017
2007
1930
1805
1714
1718
1790
1905
2003
2053
1983
1865
1763
1725
1781
1893
2006
2064
2023
1913
1795
1728
1749
1840
1952
2029
2037
1955
1847
1756
1728
1791
1908
2010
2064
2013
1916
1822
1787
1830
1943
2054
2098
