2351
2417
2445
2384
2256
2117
2035
2068
2166
2279
2322
2288
2176
2045
1969
1974
2063
2165
2249
2239
2152
2019
1920
1894
1964
2101
2218
2249
2185
2057
1930
1862
1895
1997
2125
2182
2163
2078
1959
1887
1895
1968
2095
2175
2180
2102
1961
1840
1805
1868
1993
2116
2161
2112
1989
1871
1811
1839
1939
2077
2160
2149
2037
1899
1803
1808
1907
2035
2129
2131
2043
1918
1815
1782
1837
1962
2082
2128
2075
1943
1818
1762
1809
1930
2073
2154
2128
2021
1891
1802
1813
1915
2034
2128
2129
2060
1935
1837
1807
1872
1997
2134
2182
2118
1971
1837
1775
1803
1899
2021
2096
2075
1975
1851
1762
1762
1858
1987
2091
2110
2029
1911
1824
1808
1868
1971
2086
2135
2082
1962
1841
1781
1813
1915
2033
2115
2110
2031
1935
1874
1903
2002
2115
2167
2133
2013
1854
1721
1679
1745
1883
2017
2078
2015
1881
1730
1635
1634
1710
1784
1819
1759
1600
1413
1282
1279
1393
1579
1738
1835
1840
1797
1773
1795
1895
2032
2145
2191
2142
2017
1910
1854
1901
2006
2138
2213
2203
2115
2000
1931
1936
1999
2112
2198
2207
2141
2023
1947
1929
1994
2114
2234
2282
2226
2115
2000
1954
1995
2111
2224
2297
2287
2203
2096
2017
2030
2137
2263
2364
2389
2325
2213
2119
2098
2169
2287
2399
2448
2403
2295
2192
2140
2182
2293
2417
2479
2462
2367
2244
2172
2186
2268
2371
2449
2455
2384
2257
2146
2101
2150
2255
2337
2356
2286
2151
2012
1941
1990
2105
2218
2277
2251
2139
1997
1913
1918
1999
2114
2192
2189
2101
1963
1862
1839
1895
2005
2110
2151
2104
1995
1880
1830
1872
1975
2096
2161
2145
2057
1929
1856
1867
1941
2059
2135
2138
2058
1926
1828
1807
1871
1977
2081
2111
2047
1922
1795
1737
1747
1846
1971
2064
2061
1964
1835
1756
1767
1862
1982
2070
2066
1981
1855
1745
1713
1775
1895
2005
2059
2002
1899
1793
1744
1783
1879
2006
2087
2080
1987
1872
1802
1815
1906
2016
2097
2101
2009
1893
1806
1790
1867
1991
2105
2134
2082
1951
1827
1762
1783
1866
1971
2047
2033
1943
1825
1751
1766
1853
1967
2059
2070
1999
1872
1755
1726
1798
1920
2026
2066
2018
1911
1806
1751
1792
1889
2006
2094
2096
2023
1898
1808
1814
1910
2043
2135
2119
2011
1859
1718
1655
1703
1826
1966
2033
2003
1901
1776
1680
1679
1751
1846
1883
1815
1652
1461
1321
1281
1363
1521
1681
1766
1762
1723
1687
1713
1833
1987
2119
2176
2130
2019
1906
1856
1898
2010
2128
2198
2182
2080
1956
1873
1888
1999
2147
2245
2244
2154
2015
1906
1888
1959
2100
2235
2298
2259
2132
1997
1936
1962
2074
2192
2267
2249
2141
2017
1959
1984
2091
2231
2330
2348
2285
2176
2084
2059
2128
2246
2369
2431
2399
2304
2213
2178
2227
2327
2437
2499
2465
2352
2209
2123
2133
2223
2334
2416
2423
2347
2222
2114
2096
2160
2262
2356
2382
2311
2163
2025
1953
1989
2105
2211
2258
2203
2081
1949
1858
1869
1963
2088
2162
2162
2076
1943
1843
1825
1899
2022
2128
2160
2096
1957
1840
1785
1814
1914
2032
2118
2112
2013
1920
1855
1855
1920
2019
2101
2096
2022
1913
1831
1819
1883
1994
2085
2110
2041
1909
1791
1733
1781
1906
2039
2110
2073
1970
1836
1744
1750
1857
1996
2083
2079
1996
1873
1771
1745
1813
1920
2017
2053
1984
1879
1791
1757
1810
1936
2076
2167
2162
2064
1931
1842
1845
1923
2043
2138
2145
2065
1934
1846
1830
1902
2019
2130
2169
2100
1965
1843
1786
1808
1895
2011
2077
2043
1946
1829
1757
1785
1894
2027
2115
2117
2029
1899
1808
1789
1857
1987
2115
2163
2112
1985
1871
1823
1855
1954
2069
2128
2094
1995
1904
1849
1858
1926
2032
2102
2089
1975
1830
1728
1716
1786
1901
2010
2064
2017
1904
1767
1690
1695
1763
1828
1818
1715
1527
1363
1278
1328
1483
1699
1877
1959
1925
1827
1744
1745
1841
1990
2128
2194
2164
2057
1936
1891
1941
2059
2177
2253
2237
2138
2000
1903
1899
1978
2099
2206
2229
2158
2023
1933
1918
1991
2106
2209
2258
2222
2125
2027
1990
2045
2143
2239
2288
2271
2179
2065
2005
2038
2128
2234
2311
2327
2262
2138
2042
2036
2129
2265
2394
2458
2423
2303
2183
2139
2210
2327
2453
2511
2459
2352
2226
2128
2128
2202
2318
2389
2386
2298
2187
2103
2087
2137
2237
2313
2319
2256
2151
2043
1983
2011
2095
2169
2203
2142
2007
1872
1799
1817
1906
2043
2151
2173
2093
1965
1869
1869
1951
2081
2191
2226
2154
2005
1867
1785
1830
1965
2112
2199
2175
2064
1936
1857
1877
1956
2070
2157
2165
2075
1934
1838
1829
1919
2062
2149
2165
2112
1985
1871
1812
1825
1883
1977
2053
2075
2019
1936
1872
1872
1939
2027
2093
2069
1993
1902
1837
1847
1953
2086
2165
2166
2066
1935
1808
1753
1828
1968
2127
2222
2192
2081
1937
1867
1890
1971
2082
2142
2131
2035
1893
1781
1767
1840
1955
2062
2110
2064
1939
1842
1809
1863
1974
2085
2131
2087
1973
1825
1709
1708
1810
1970
2090
2147
2109
1995
1897
1872
1941
2064
2159
2160
2059
1902
1789
1792
1904
2055
2143
2187
2138
2026
1899
1813
1819
1905
2019
2092
2091
2006
1881
1781
1750
1820
1920
2000
2004
1918
1776
1627
1495
1475
1535
1657
1735
1735
1646
1535
1529
1619
1790
1966
2108
2160
2100
1985
1872
1825
1886
2007
2160
2254
2225
2126
2010
1951
1982
2065
2174
2253
2261
2185
2019
1902
1904
2013
2155
2245
2245
2165
2029
1907
1873
1957
2109
2230
2272
2207
2085
1959
1910
1975
2112
2229
2274
2242
2176
2096
2054
2095
2179
2277
2349
2385
2352
2255
2178
2182
2279
2383
2416
2386
2290
2177
2071
2032
2070
2173
2309
2421
2443
2384
2282
2177
2145
2174
2240
2309
2324
2257
2134
2004
1937
1969
2073
2173
2214
2167
2038
1904
1810
1830
1942
2067
2133
2087
1940
1801
1727
1793
1936
2068
2167
2192
2138
2022
1922
1886
1925
1998
2059
2085
2035
1943
1851
1823
1859
1934
2022
2074
2047
1983
1915
1855
1855
1911
2001
2078
2083
1996
1887
1817
1827
1917
2025
2110
2143
2094
1952
1808
1758
1856
1982
2077
2110
2038
1901
1745
1665
1713
1844
1987
2098
2107
2043
1920
1829
1791
1831
1951
2085
2135
2063
1901
1738
1683
1742
1871
2032
2129
2119
2013
1893
1827
1841
1915
2000
2047
2002
1875
1722
1647
1683
1827
1995
2127
2139
2064
1931
1818
1776
1826
1903
1968
2010
1974
1895
1792
1722
1746
1838
1957
2026
2023
1934
1810
1747
1777
1893
1999
2099
2135
2093
1984
1890
1840
1854
1918
1988
2014
1951
1830
1744
1727
1801
1926
2039
2079
2000
1862
1693
1535
1481
1503
1572
1619
1630
1578
1500
1465
1506
1643
1803
1938
2027
2027
1936
1805
1726
1776
1920
2091
2183
2183
2089
1940
1847
1862
1972
2112
2195
2205
2130
2007
1915
1902
1973
2083
2175
2209
2184
2100
1981
1895
1903
1969
2084
2159
2161
2111
2014
1942
1947
2032
2145
2246
2277
2219
2111
2013
2000
2073
2181
2281
2351
2323
2223
2110
2032
2047
2170
2299
2394
2399
2323
2208
2124
2112
2199
2327
2419
2426
2358
2246
2133
2078
2106
2199
2298
2347
2303
2186
2046
1957
1974
2071
2174
2231
2194
2097
1968
1856
1823
1901
2023
2128
2147
2083
1947
1814
1775
1825
1936
2061
2118
2081
1978
1872
1808
1814
1910
2039
2135
2142
2053
1933
1840
1818
1889
2002
2112
2147
2095
1977
1862
1808
1847
1938
2071
2147
2120
2007
1867
1771
1783
1898
2037
2130
2128
2025
1886
1793
1792
1862
1965
2062
2085
2022
1905
1811
1792
1854
1971
2095
2146
2101
1975
1841
1773
1795
1894
2015
2098
2094
2003
1901
1838
1834
1895
1999
2096
2103
2031
1917
1822
1792
1842
1951
2038
2091
2034
1927
1813
1772
1810
1893
2002
2095
2089
1995
1872
1789
1795
1882
1999
2094
2115
2037
1925
1815
1775
1834
1943
2057
2101
2063
1962
1856
1793
1807
1888
2010
2109
2123
2035
1920
1839
1811
1861
1943
2017
2031
1971
1881
1786
1747
1808
1920
2014
2055
2006
1889
1754
1665
1655
1693
1763
1785
1712
1577
1433
1360
1408
1559
1757
1927
2010
1988
1904
1821
1809
1886
2023
2141
2191
2138
2041
1925
1868
1887
1990
2123
2211
2214
2123
1995
1904
1895
1961
2091
2203
2245
2201
2074
1951
1904
1962
2074
2183
2257
2222
2123
1999
1936
1954
2044
2171
2262
2271
2184
2063
1974
1978
2073
2214
2334
2365
2304
2211
2110
2066
2127
2256
2378
2431
2384
2265
2148
2086
2103
2192
2311
2401
2386
2304
2176
2091
2083
2147
2247
2321
2330
2258
2139
2015
1954
1982
2074
2174
2209
2148
2027
1904
1826
1837
1936
2064
2147
2132
2032
1909
1815
1808
1893
2010
2116
2127
2033
1900
1791
1759
1822
1941
2077
2153
2114
2014
1881
1796
1808
1911
2036
2120
2122
2038
1937
1841
1821
1879
1982
2075
2082
2005
1903
1791
1758
1826
1952
2079
2122
2073
1953
1825
1762
1808
1909
2026
2107
2087
1984
1862
1775
1792
1888
2005
2098
2109
2030
1906
1798
1773
1834
1966
2075
2116
2067
1945
1839
1791
1831
1934
2042
2112
2096
1994
1879
1792
1781
1856
1989
2096
2117
2033
1906
1793
1755
1809
1931
2047
2110
2065
1950
1833
1770
1815
1932
2064
2142
2117
2015
1881
1781
1765
1844
1968
2076
2107
2041
1923
1809
1757
1799
1909
2017
2070
2030
1935
1835
1783
1840
1951
2107
2206
2194
2096
1940
1840
1814
1882
1999
2101
2112
2013
1904
1807
1750
1778
1846
1909
1926
1856
1735
1595
1483
1464
1522
1633
1719
1739
1681
1603
1565
1616
1759
1932
2081
2133
2085
1973
1890
1877
1943
2060
2161
2202
2152
2032
1911
1850
1879
1987
2128
2215
2201
2107
1984
1903
1909
1996
2111
2180
2186
2111
1991
1898
1879
1955
2096
2209
2256
2195
2086
1979
1920
1967
2080
2205
2278
2261
2185
2077
2000
2033
2139
2261
2346
2352
2274
2160
2064
2033
2112
2245
2368
2416
2370
2257
2157
2110
2143
2243
2366
2439
2422
2320
2183
2091
2079
2150
2263
2357
2368
2284
2145
2022
1974
2027
2143
2238
2266
2211
2086
1942
1868
1893
1993
2112
2170
2137
2023
1898
1827
1860
1939
2047
2128
2128
2061
1937
1842
1823
1877
1994
2112
2160
2112
1995
1879
1825
1867
1967
2086
2160
2153
2055
1933
1840
1839
1923
2056
2158
2176
2106
1983
1883
1853
1905
2007
2097
2130
2076
1963
1846
1789
1821
1918
2039
2119
2097
2006
1900
1821
1821
1901
2021
2114
2110
2004
1878
1781
1755
1806
1910
2026
2080
2043
1942
1840
1787
1830
1937
2055
2133
2123
2023
1889
1808
1813
1906
2033
2140
2153
2083
1968
1865
1821
1874
1987
2092
2112
2047
1927
1811
1756
1798
1907
2037
2112
2096
1999
1883
1808
1812
1904
2028
2126
2128
2057
1927
1829
1802
1866
1979
2093
2128
2065
1947
1830
1770
1800
1915
2064
2160
2145
2063
1933
1845
1837
1898
1993
2071
2064
1984
1865
1769
1738
1793
1895
1999
2005
1907
1747
1619
1535
1553
1617
1703
1744
1699
1591
1475
1451
1520
1666
1850
1991
2063
2026
1927
1851
1827
1899
2030
2157
2219
2179
2075
1939
1859
1886
1996
2122
2211
2201
2101
1973
1908
1926
2014
2128
2210
2214
2123
1984
1879
1857
1929
2063
2183
2247
2214
2117
2003
1939
1984
2094
2212
2281
2253
2143
2014
1941
1968
2075
2209
2330
2370
2309
2191
2092
2061
2126
2251
2367
2417
2369
2254
2143
2081
2115
2225
2347
2416
2386
2302
2186
2099
2106
2188
2298
2359
2349
2261
2127
2007
1975
2032
2151
2255
2288
2222
2095
1968
1904
1935
2037
2142
2191
2143
2025
1901
1825
1850
1942
2066
2160
2173
2085
1949
1834
1809
1873
1983
2096
2126
2065
1954
1853
1806
1846
1957
2080
2147
2113
2014
1899
1814
1822
1903
2014
2109
2116
2028
1890
1791
1773
1842
1966
2085
2128
2076
1962
1841
1787
1830
1936
2055
2119
2109
2013
1904
1835
1827
1895
1989
2063
2064
1984
1871
1776
1759
1834
1961
2071
2110
2059
1948
1837
1786
1824
1935
2057
2122
2103
2004
1875
1806
1811
1903
2019
2112
2119
2035
1904
1811
1793
1859
1974
2080
2111
2063
1951
1831
1762
1781
1871
1987
2071
2055
1975
1878
1821
1835
1911
2029
2112
2109
2011
1867
1765
1735
1808
1932
2032
2064
1996
1873
1773
1728
1776
1885
2005
2091
2077
1983
1872
1801
1821
1926
2078
2190
2196
2107
1953
1819
1763
1808
1920
2032
2079
2011
1881
1755
1688
1690
1751
1840
1886
1849
1718
1555
1427
1395
1456
1575
1680
1727
1701
1645
1619
1680
1835
2014
2155
2177
2102
1972
1856
1815
1878
1989
2112
2180
2165
2074
1959
1883
1901
1997
2127
2199
2215
2128
2013
1929
1923
1999
2113
2215
2241
2175
2039
1920
1865
1917
2030
2158
2233
2223
2128
2003
1936
1955
2043
2178
2282
2291
2214
2091
1984
1977
2077
2217
2351
2404
2352
2240
2118
2070
2128
2256
2384
2460
2432
2334
2197
2109
2123
2214
2347
2432
2428
2331
2195
2089
2047
2110
2225
2331
2368
2304
2166
2043
1984
2019
2115
2214
2266
2226
2128
1998
1900
1882
1950
2075
2173
2179
2100
1954
1841
1811
1873
1987
2089
2127
2063
1939
1826
1783
1845
1968
2097
2160
2135
2039
1909
1812
1808
1881
1997
2071
2085
1995
1865
1762
1744
1821
1941
2061
2101
2043
1925
1802
1751
1799
1913
2037
2106
2080
1972
1859
1781
1793
1882
1997
2081
2079
1997
1875
1785
1763
1831
1950
2057
2082
2014
1895
1782
1733
1779
1876
1969
2019
1991
1895
1777
1712
1731
1832
1962
2064
2081
2000
1889
1789
1763
1838
1975
2096
2124
2039
1898
1789
1748
1808
1919
2021
2071
2015
1895
1762
1696
1719
1819
1951
2043
2047
1973
1861
1771
1757
1815
1932
2026
2062
1998
1886
1780
1747
1803
1920
2045
2118
2081
1969
1850
1774
1783
1875
1981
2058
2064
1985
1875
1808
1830
1919
2045
2127
2123
2021
1872
1735
1687
1745
1872
1999
2064
2035
1936
1787
1664
1621
1661
1731
1772
1719
1598
1447
1345
1345
1434
1591
1733
1808
1805
1748
1701
1700
1789
1933
2077
2141
2111
2001
1879
1815
1851
1965
2096
2176
2155
2064
1936
1847
1846
1935
2063
2163
2195
2138
2028
1915
1890
1956
2083
2198
2240
2182
2065
1943
1878
1904
1995
2128
2239
2257
2192
2071
1980
1982
2067
2192
2288
2322
2265
2151
2047
2012
2080
2212
2345
2413
2382
2287
2173
2096
2117
2227
2358
2450
2451
2363
2238
2147
2131
2209
2335
2432
2448
2369
2249
2123
2064
2111
2222
2327
2381
2333
2210
2080
1991
1993
2065
2172
2245
2224
2119
1977
1872
1841
1907
2025
2128
2155
2096
1980
1882
1857
1918
2019
2114
2151
2095
1976
1863
1808
1839
1934
2062
2129
2109
2011
1898
1805
1786
1851
1965
2064
2093
2021
1892
1780
1735
1792
1912
2030
2094
2058
1966
1851
1775
1786
1877
1990
2065
2064
1965
1838
1744
1734
1812
1934
2022
2032
1968
1858
1761
1728
1791
1919
2042
2105
2060
1936
1805
1727
1738
1822
1947
2042
2061
1981
1856
1746
1739
1837
1967
2075
2096
2026
1911
1806
1776
1824
1930
2038
2107
2075
1971
1862
1808
1835
1936
2062
2131
2118
2006
1869
1763
1755
1835
1968
2083
2106
2033
1920
1809
1775
1831
1946
2068
2122
2074
1961
1835
1754
1775
1875
2000
2086
2082
2006
1903
1808
1794
1856
1968
2066
2103
2062
1967
1872
1840
1889
1985
2079
2103
2038
1916
1787
1712
1744
1854
1985
2064
2023
1904
1747
1619
1583
1619
1697
1745
1723
1612
1468
1364
1375
1491
1675
1849
1969
1999
1939
1871
1829
1880
1998
2133
2222
2219
2135
2002
1904
1875
1937
2045
2155
2193
2134
2028
1935
1904
1959
2085
2207
2259
2224
2107
1975
1898
1931
2035
2167
2247
2246
2159
2029
1930
1920
2013
2154
2256
2293
2208
2101
2019
1989
2082
2206
2326
2391
2355
2253
2127
2067
2096
2211
2363
2462
2466
2384
2261
2182
2178
2255
2366
2457
2478
2406
2287
2181
2134
2182
2302
2413
2450
2384
2258
2139
2075
2105
2187
2295
2367
2331
2191
2031
1941
1942
2029
2155
2225
2227
2157
2032
1921
1876
1921
2028
2155
2209
2162
2038
1909
1839
1861
1967
2093
2162
2139
2034
1911
1823
1828
1916
2035
2133
2146
2084
1964
1857
1830
1902
2032
2149
2183
2115
1990
1872
1810
1843
1959
2087
2160
2140
2038
1919
1838
1838
1907
2015
2105
2117
2042
1915
1810
1776
1843
1969
2103
2163
2116
2000
1873
1813
1858
1954
2066
2122
2093
1969
1827
1738
1741
1845
1995
2118
2159
2095
1967
1863
1826
1873
1991
2111
2165
2117
2000
1875
1805
1825
1920
2032
2099
2075
1975
1855
1771
1777
1867
1988
2094
2111
2029
1904
1795
1770
1841
1963
2089
2139
2096
1968
1833
1755
1785
1887
2015
2097
2082
1985
1872
1805
1830
1921
2039
2128
2137
2064
1945
1854
1833
1898
2006
2118
2157
2081
1924
1769
1680
1700
1803
1936
2031
2023
1920
1777
1670
1658
1719
1810
1870
1843
1729
1565
1419
1359
1410
1556
1716
1839
1845
1783
1714
1709
1787
1931
2087
2186
2175
2082
1957
1872
1872
1965
2086
2165
2181
2112
1995
1904
1874
1936
2058
2176
2238
2183
2065
1936
1867
1899
2002
2147
2235
2231
2131
2007
1925
1937
2042
2174
2269
2263
2183
2062
1959
1948
2016
2151
2274
2320
2266
2157
2044
1988
2039
2163
2288
2383
2391
2311
2193
2107
2096
2162
2282
2374
2400
2342
2245
2135
2098
2157
2259
2352
2405
2368
2282
2151
2078
2110
2199
2291
2330
2285
2160
2022
1927
1920
2007
2145
2241
2246
2157
1999
1867
1837
1898
2015
2123
2160
2123
2026
1915
1865
1895
1994
2120
2186
2160
2039
1904
1802
1804
1890
2003
2093
2103
2027
1913
1825
1805
1855
1961
2067
2118
2081
1967
1857
1809
1859
1953
2057
2118
2096
1997
1873
1790
1794
1875
1994
2097
2103
2031
1906
1822
1781
1831
1937
2041
2101
2064
1962
1838
1773
1808
1920
2039
2112
2095
1989
1861
1773
1779
1872
2000
2096
2125
2067
1943
1849
1831
1888
1993
2097
2131
2082
1968
1855
1807
1849
1953
2087
2152
2125
2009
1879
1806
1824
1917
2041
2138
2163
2112
1987
1851
1793
1836
1937
2054
2105
2063
1939
1819
1771
1794
1901
2027
2103
2096
1998
1867
1776
1777
1867
2005
2128
2170
2106
1973
1869
1847
1920
2055
2148
2154
2064
1918
1774
1701
1731
1840
1973
2076
2067
1968
1840
1744
1738
1808
1904
1952
1899
1744
1568
1417
1354
1421
1584
1758
1867
1883
1827
1759
1745
1812
1938
2076
2144
2140
2064
1968
1914
1936
2020
2137
2224
2213
2117
1995
1894
1872
1959
2098
2218
2256
2209
2106
2000
1952
1997
2112
2224
2283
2240
2134
2009
1938
1955
2059
2192
2289
2288
2194
2073
1986
2002
2107
2236
2335
2349
2274
2153
2032
1985
2046
2176
2317
2401
2390
2293
2176
2103
2122
2230
2369
2463
2461
2367
2218
2097
2065
2131
2255
2375
2431
2370
2234
2099
2015
2043
2146
2267
2343
2314
2195
2055
1952
1947
2013
2118
2191
2191
2097
1963
1856
1833
1899
2013
2123
2160
2105
2001
1870
1808
1843
1954
2089
2150
2112
1999
1881
1808
1834
1926
2059
2146
2146
2063
1933
1830
1806
1872
2000
2121
2153
2097
1958
1827
1776
1829
1938
2045
2111
2082
1982
1867
1793
1808
1902
2020
2103
2111
2041
1935
1831
1807
1892
2019
2117
2146
2078
1942
1830
1774
1809
1923
2047
2129
2095
1982
1861
1793
1811
1910
2026
2106
2103
2009
1881
1791
1785
1869
1997
2115
2157
2096
1979
1874
1826
1858
1959
2071
2126
2081
1968
1855
1791
1814
1914
2032
2112
2106
2015
1888
1795
1797
1875
1986
2075
2105
2043
1923
1809
1769
1821
1930
2053
2117
2096
1994
1889
1823
1835
1910
2032
2110
2113
2039
1935
1843
1829
1895
1990
2064
2064
1983
1866
1757
1727
1792
1919
2047
2113
2064
1926
1762
1658
1649
1709
1785
1824
1779
1649
1497
1390
1387
1488
1674
1854
1954
1943
1875
1803
1790
1861
1988
2119
2192
2173
2071
1948
1879
1900
2007
2142
2237
2231
2130
1994
1904
1902
1968
2096
2198
2231
2167
2042
1935
1879
1925
2044
2170
2231
2207
2106
1985
1918
1938
2034
2171
2273
2286
2211
2096
2007
1998
2071
2194
2304
2332
2278
2163
2064
2019
2081
2211
2351
2431
2403
2295
2171
2090
2097
2189
2319
2405
2411
2323
2195
2101
2087
2155
2277
2384
2421
2350
2198
2055
1971
2006
2110
2215
2275
2241
2128
1989
1887
1889
1966
2093
2183
2193
2117
1990
1899
1873
1935
2045
2139
2160
2090
1955
1838
1792
1840
1958
2083
2154
2131
2032
1901
1820
1837
1933
2033
2129
2128
2034
1925
1837
1838
1893
2000
2096
2112
2043
1922
1823
1783
1837
1951
2081
2143
2096
1964
1825
1742
1762
1851
1983
2076
2074
1984
1857
1764
1762
1842
1978
2081
2108
2035
1913
1806
1765
1829
1959
2090
2133
2087
1973
1849
1779
1809
1919
2054
2128
2115
2022
1898
1798
1781
1855
1975
2102
2151
2102
1971
1857
1814
1871
1981
2090
2141
2103
1987
1866
1789
1798
1883
1999
2091
2087
1997
1882
1789
1773
1853
1979
2083
2102
2036
1924
1821
1778
1831
1938
2064
2117
2072
1967
1841
1773
1783
1867
1998
2099
2101
2026
1917
1840
1843
1926
2035
2123
2121
2021
1874
1763
1723
1793
1925
2061
2119
2074
1942
1791
1692
1695
1785
1873
1921
1869
1721
1535
1426
1431
1557
1730
1879
1953
1937
1872
1808
1807
1882
2001
2128
2196
2175
2083
1968
1887
1913
2011
2141
2203
2175
2081
1968
1882
1873
1947
2074
2179
2224
2174
2064
1958
1922
1969
2090
2195
2256
2211
2112
1991
1936
1971
2079
2208
2282
2275
2202
2089
1994
1983
2081
2224
2327
2358
2279
2157
2039
2009
2085
2210
2341
2407
2370
2260
2141
2080
2111
2214
2347
2435
2428
2333
2201
2112
2105
2184
2306
2399
2413
2332
2202
2081
2029
2077
2176
2284
2323
2270
2150
2021
1952
1968
2065
2175
2250
2224
2112
1975
1871
1845
1910
2028
2128
2151
2099
1985
1889
1851
1911
2023
2129
2182
2139
2013
1879
1803
1821
1920
2047
2133
2140
2044
1910
1821
1813
1887
2011
2125
2157
2082
1946
1845
1809
1865
1975
2070
2112
2064
1953
1831
1766
1799
1909
2035
2119
2110
2002
1873
1789
1776
1856
1965
2071
2104
2036
1918
1808
1778
1833
1941
2039
2086
2057
1963
1859
1801
1823
1920
2041
2128
2121
2030
1895
1802
1779
1853
1979
2096
2117
2047
1927
1815
1776
1840
1964
2079
2119
2065
1951
1828
1755
1777
1872
1991
2082
2075
1981
1851
1773
1774
1856
1975
2074
2094
2031
1925
1836
1800
1856
1968
2064
2109
2053
1931
1813
1760
1796
1905
2039
2128
2121
2025
1905
1818
1833
1923
2061
2143
2139
2034
1889
1775
1727
1794
1905
2002
2041
1978
1847
1703
1597
1601
1690
1803
1861
1815
1691
1520
1390
1358
1441
1603
1767
1856
1861
1810
1776
1791
1874
1999
2112
2172
2140
2041
1929
1866
1871
1968
2082
2154
2138
2055
1929
1855
1855
1939
2066
2162
2197
2141
2018
1905
1867
1924
2037
2160
2222
2177
2066
1942
1890
1935
2058
2176
2255
2239
2148
2029
1952
1954
2032
2162
2270
2299
2240
2128
2032
2005
2072
2197
2320
2372
2337
2227
2123
2071
2110
2215
2341
2416
2397
2303
2166
2078
2083
2163
2272
2368
2382
2287
2158
2054
2015
2064
2162
2251
2288
2231
2105
1971
1898
1911
2030
2170
2256
2241
2135
1984
1869
1856
1936
2063
2160
2181
2112
1998
1890
1856
1902
1999
2105
2150
2107
1979
1853
1791
1833
1947
2087
2163
2145
2042
1926
1840
1830
1906
2027
2121
2129
2040
1917
1819
1792
1859
1970
2091
2127
2063
1937
1821
1763
1801
1917
2037
2122
2114
2017
1885
1787
1778
1849
1971
2075
2086
1997
1867
1757
1723
1792
1910
2032
2096
2055
1943
1824
1747
1768
1865
1978
2055
2042
1966
1853
1773
1775
1872
2001
2110
2127
2059
1927
1817
1779
1837
1953
2078
2137
2103
1989
1870
1809
1831
1917
2019
2082
2064
1953
1831
1745
1761
1856
1971
2067
2073
1984
1857
1754
1731
1797
1915
2023
2079
2029
1914
1797
1739
1776
1885
2010
2087
2068
1979
1865
1778
1782
1872
1999
2095
2114
2058
1951
1863
1842
1898
1999
2096
2112
2032
1901
1774
1714
1735
1827
1935
1984
1922
1782
1616
1513
1506
1591
1679
1716
1680
1563
1417
1320
1335
1472
1682
1879
1994
2000
1927
1843
1807
1863
1982
2107
2178
2164
2064
1917
1838
1843
1927
2068
2171
2187
2118
1999
1913
1881
1941
2065
2175
2221
2187
2078
1963
1904
1939
2055
2170
2233
2227
2142
2025
1932
1920
2000
2128
2226
2250
2179
2062
1957
1942
2029
2165
2287
2333
2290
2189
2093
2038
2096
2217
2351
2411
2383
2287
2167
2096
2103
2197
2321
2416
2435
2352
2232
2135
2109
2169
2270
2361
2385
2327
2207
2082
2017
2058
2134
2253
2320
2275
2156
2015
1927
1927
2002
2114
2197
2195
2107
1974
1866
1851
1923
2047
2150
2192
2128
2001
1883
1831
1872
1976
2096
2157
2134
2032
1915
1842
1858
1952
2074
2158
2153
2065
1940
1840
1815
1879
1991
2096
2128
2076
1961
1845
1799
1841
1947
2064
2128
2093
1970
1839
1751
1751
1836
1967
2082
2101
2021
1894
1777
1751
1821
1932
2032
2076
2015
1904
1796
1747
1790
1903
2023
2095
2063
1953
1833
1756
1763
1842
1968
2065
2081
1995
1872
1773
1761
1837
1961
2075
2118
2059
1934
1811
1760
1806
1923
2061
2139
2121
2000
1855
1761
1742
1834
1962
2063
2066
1991
1871
1769
1744
1835
1957
2063
2107
2041
1926
1802
1730
1760
1857
1982
2059
2037
1948
1830
1760
1767
1859
1993
2084
2094
2000
1881
1795
1776
1842
1970
2097
2160
2123
2030
1911
1840
1856
1921
2007
2059
2019
1917
1805
1745
1769
1855
1956
2010
1951
1802
1635
1509
1461
1489
1581
1649
1663
1596
1467
1371
1371
1479
1661
1846
1973
2013
1968
1875
1817
1837
1943
2071
2155
2160
2085
1965
1873
1867
1945
2079
2190
2229
2176
2065
1951
1907
1953
2065
2181
2248
2214
2109
1979
1914
1929
2014
2139
2217
2225
2149
2012
1919
1920
2007
2158
2277
2321
2271
2160
2043
2000
2047
2173
2294
2368
2351
2249
2134
2074
2109
2212
2338
2446
2460
2387
2281
2190
2167
2230
2355
2469
2498
2448
2334
2223
2161
2189
2283
2387
2454
2421
2307
2179
2103
2112
2201
2314
2389
2383
2288
2149
2031
1987
2038
2129
2215
2242
2189
2064
1936
1873
1918
2021
2140
2218
2192
2095
1958
1875
1889
1973
2089
2166
2164
2067
1921
1821
1787
1853
1971
2096
2139
2073
1945
1831
1780
1821
1934
2053
2122
2096
1985
1856
1774
1783
1881
2014
2098
2105
2022
1904
1809
1792
1861
1972
2083
2109
2046
1927
1805
1751
1801
1914
2025
2091
2059
1967
1845
1773
1787
1887
2014
2109
2097
1987
1851
1737
1714
1791
1927
2047
2103
2059
1956
1845
1797
1839
1936
2059
2135
2117
1999
1855
1776
1797
1886
2011
2096
2096
2002
1871
1760
1737
1819
1929
2045
2096
2015
1895
1790
1742
1786
1895
2012
2093
2062
1955
1823
1744
1777
1875
1995
2099
2105
2017
1873
1772
1756
1835
1940
2038
2089
2018
1903
1792
1749
1813
1953
2101
2176
2139
2003
1849
1735
1714
1792
1907
2001
2010
1935
1828
1741
1725
1789
1870
1927
1915
1807
1635
1469
1375
1373
1450
1565
1646
1648
1600
1552
1535
1629
1788
1968
2092
2121
2057
1936
1837
1819
1891
2022
2149
2187
2126
1995
1888
1853
1907
2031
2166
2240
2209
2094
1953
1873
1897
1987
2112
2198
2205
2112
1983
1892
1900
1983
2115
2219
2247
2192
2097
1997
1954
2005
2113
2233
2288
2265
2181
2073
2006
2046
2163
2303
2396
2394
2309
2188
2096
2092
2179
2307
2419
2459
2404
2279
2174
2123
2164
2263
2377
2439
2397
2288
2163
2096
2112
2195
2319
2397
2390
2288
2154
2041
2011
2079
2188
2277
2301
2222
2092
1970
1921
1968
2070
2163
2210
2159
2035
1910
1838
1861
1947
2067
2145
2134
2036
1911
1831
1825
1901
2023
2124
2135
2047
1923
1817
1780
1837
1947
2071
2139
2101
1988
1859
1778
1793
1889
2007
2098
2099
2010
1887
1789
1776
1849
1978
2094
2115
2038
1905
1773
1722
1773
1886
2006
2084
2061
1936
1806
1727
1747
1847
1968
2047
2054
1985
1875
1766
1744
1811
1939
2045
2085
2027
1920
1819
1773
1809
1905
2005
2065
2023
1927
1826
1776
1814
1915
2019
2090
2077
1986
1870
1776
1750
1819
1935
2031
2055
1985
1872
1776
1749
1810
1931
2061
2112
2063
1952
1824
1757
1787
1883
1995
2083
2089
2007
1893
1808
1778
1839
1963
2071
2102
2032
1904
1779
1741
1807
1945
2080
2154
2121
2025
1910
1830
1850
1931
2019
2065
2027
1911
1770
1671
1687
1795
1936
2026
2026
1920
1763
1635
1584
1601
1669
1711
1695
1607
1486
1383
1345
1431
1610
1811
1969
2032
1985
1886
1825
1837
1927
2053
2148
2169
2105
1990
1895
1857
1929
2047
2175
2224
2169
2055
1927
1856
1887
1988
2130
2224
2223
2134
2013
1939
1936
2010
2124
2210
2238
2170
2055
1957
1927
1981
2099
2224
2286
2252
2157
2034
1975
2003
2112
2239
2341
2355
2288
2191
2122
2136
2214
2331
2429
2449
2370
2251
2151
2119
2179
2295
2413
2475
2435
2329
2208
2138
2157
2243
2352
2413
2381
2272
2129
2031
2025
2106
2223
2320
2326
2238
2096
1968
1920
1970
2085
2175
2208
2150
2021
1890
1819
1837
1936
2069
2151
2139
2047
1918
1812
1792
1861
1985
2112
2161
2114
1983
1850
1793
1835
1952
2087
2142
2115
1989
1864
1802
1827
1925
2039
2119
2112
2013
1887
1806
1806
1883
2003
2110
2126
2043
1921
1813
1770
1822
1948
2065
2111
2057
1947
1840
1779
1808
1913
2033
2112
2090
1980
1851
1755
1748
1830
1968
2079
2099
2021
1904
1805
1787
1855
1971
2096
2141
2091
1962
1833
1765
1798
1911
2034
2123
2119
2021
1901
1813
1808
1877
1984
2085
2097
2020
1900
1793
1759
1817
1927
2047
2112
2067
1963
1847
1806
1843
1943
2057
2117
2093
1979
1845
1752
1754
1845
1969
2083
2112
2034
1905
1797
1775
1842
1975
2105
2167
2133
2032
1902
1824
1825
1899
1983
2026
1997
1905
1793
1737
1732
1830
1947
2016
2001
1906
1758
1631
1588
1599
1661
1727
1731
1661
1520
1411
1381
1455
1633
1834
1971
2032
2001
1919
1857
1872
1967
2095
2201
2220
2122
1972
1862
1821
1887
2022
2155
2218
2176
2064
1939
1879
1915
2027
2160
2229
2227
2125
2004
1923
1931
2022
2160
2260
2287
2214
2096
1972
1936
2002
2127
2258
2326
2303
2179
2064
1996
2034
2162
2303
2400
2384
2295
2167
2078
2077
2166
2294
2393
2416
2366
2256
2155
2112
2177
2304
2422
2480
2438
2310
2176
2098
2113
2219
2334
2398
2369
2266
2151
2081
2080
2141
2227
2294
2272
2174
2021
1908
1875
1929
2046
2160
2204
2143
2000
1863
1808
1846
1951
2079
2154
2129
2027
1902
1809
1809
1890
2005
2125
2156
2079
1949
1840
1815
1873
1993
2098
2149
2106
1985
1871
1814
1842
1943
2065
2131
2110
2015
1892
1807
1799
1877
1986
2089
2111
2038
1925
1823
1776
1826
1936
2043
2086
2027
1919
1808
1767
1808
1918
2026
2069
2037
1946
1843
1775
1777
1856
1974
2070
2096
2019
1889
1794
1781
1841
1957
2077
2125
2079
1965
1841
1771
1793
1887
2002
2093
2094
2003
1883
1797
1782
1853
1968
2071
2085
1990
1856
1758
1733
1791
1909
2023
2080
2031
1904
1783
1728
1769
1865
1978
2046
2029
1938
1814
1735
1738
1831
1949
2043
2058
1979
1845
1737
1703
1776
1904
2029
2093
2039
1927
1822
1775
1808
1911
2019
2044
1998
1895
1776
1691
1680
1786
1920
2021
2017
1920
1776
1663
1602
1615
1676
1738
1744
1655
1508
1392
1371
1454
1605
1793
1923
1947
1911
1849
1773
1794
1908
2069
2165
2178
2102
1968
1885
1881
1942
2073
2182
2222
2167
2038
1906
1843
1893
2005
2131
2201
2170
2042
1903
1830
1856
1962
2093
2186
2207
2126
2005
1925
1913
1995
2128
2243
2277
2224
2112
1999
1951
2007
2150
2283
2338
2310
2216
2107
2017
2016
2110
2245
2361
2393
2330
2217
2118
2103
2171
2287
2394
2431
2382
2273
2145
2071
2096
2201
2321
2384
2339
2218
2078
1991
1995
2078
2183
2256
2245
2159
2032
1935
1901
1952
2066
2168
2193
2137
2006
1881
1810
1839
1936
2065
2155
2133
2009
1855
1751
1767
1872
2013
2117
2131
2065
1937
1809
1774
1831
1963
2090
2135
2090
1984
1871
1802
1826
1905
2016
2095
2077
1981
1861
1782
1790
1871
2000
2106
2129
2059
1936
1839
1782
1825
1935
2045
2096
2047
1943
1840
1788
1839
1952
2096
2179
2150
2019
1872
1774
1776
1872
1995
2096
2106
2021
1904
1803
1767
1837
1965
2070
2115
2080
1978
1867
1808
1831
1923
2043
2115
2096
1991
1876
1795
1814
1904
2011
2094
2098
2006
1879
1777
1762
1831
1957
2071
2128
2093
1973
1849
1787
1826
1935
2058
2119
2096
1994
1871
1787
1793
1882
2009
2106
2127
2047
1921
1807
1763
1824
1936
2060
2102
2047
1935
1834
1805
1866
1984
2119
2171
2121
2000
1859
1765
1773
1873
2010
2111
2129
2061
1932
1811
1759
1799
1887
1968
1967
1854
1683
1516
1404
1408
1523
1675
1791
1805
1749
1674
1643
1706
1840
2000
2133
2167
2105
1985
1897
1869
1936
2079
2192
2224
2158
2032
1904
1843
1887
2013
2151
2219
2192
2096
1965
1883
1905
2009
2137
2225
2237
2161
2045
1936
1897
1972
2102
2219
2277
2233
2113
1985
1930
1984
2121
2260
2351
2335
2231
2098
2010
2025
2139
2274
2379
2389
2320
2213
2126
2101
2160
2278
2390
2434
2379
2259
2135
2086
2131
2241
2361
2425
2389
2290
2163
2074
2070
2141
2247
2320
2303
2206
2079
1978
1937
1987
2103
2203
2242
2177
2055
1924
1861
1895
1999
2124
2193
2166
2041
1888
1790
1805
1901
2030
2131
2151
2080
1949
1851
1829
1895
2007
2118
2156
2113
2002
1903
1846
1882
1974
2091
2145
2107
1997
1870
1797
1809
1902
2019
2113
2126
2058
1918
1813
1789
1863
1974
2077
2112
2061
1951
1849
1795
1837
1936
2060
2128
2110
2006
1872
1777
1777
1855
1984
2083
2090
2007
1885
1782
1751
1830
1938
2046
2101
2047
1936
1830
1778
1820
1935
2058
2127
2096
1986
1860
1776
1792
1895
2014
2102
2113
2032
1913
1821
1811
1875
1987
2087
2113
2047
1933
1819
1756
1807
1917
2042
2126
2096
1994
1872
1790
1807
1899
2023
2119
2118
2027
1896
1788
1766
1836
1957
2064
2106
2047
1936
1823
1771
1811
1921
2041
2123
2113
2021
1900
1811
1821
1904
2021
2093
2071
1959
1829
1721
1712
1791
1933
2058
2112
2062
1919
1774
1696
1723
1811
1906
1919
1831
1667
1494
1394
1405
1525
1706
1859
1936
1909
1838
1779
1790
1887
2022
2137
2179
2128
2018
1913
1862
1903
2010
2128
2198
2179
2079
1951
1871
1884
1982
2112
2205
2213
2142
2006
1895
1871
1943
2086
2207
2256
2192
2059
1922
1873
1927
2067
2177
2235
2220
2110
1979
1905
1936
2037
2181
2285
2303
2233
2122
2018
2009
2100
2224
2350
2402
2361
2254
2146
2093
2131
2241
2352
2405
2377
2271
2147
2071
2089
2160
2280
2363
2362
2262
2139
2023
1997
2065
2176
2267
2288
2212
2070
1952
1905
1962
2070
2189
2239
2197
2090
1958
1866
1872
1963
2077
2145
2144
2064
1938
1855
1837
1891
1991
2096
2114
2046
1937
1841
1799
1855
1969
2096
2161
2122
2013
1888
1797
1817
1911
2032
2125
2127
2037
1907
1811
1791
1857
1985
2102
2127
2041
1904
1794
1767
1834
1947
2071
2130
2099
1985
1861
1781
1792
1893
2015
2105
2112
2026
1893
1799
1786
1867
1991
2097
2119
2061
1939
1833
1790
1842
1965
2078
2119
2069
1942
1819
1748
1766
1870
2001
2105
2119
2042
1918
1820
1801
1868
1977
2093
2128
2074
1949
1841
1803
1856
1977
2100
2159
2118
1982
1840
1759
1761
1846
1970
2081
2097
2019
1898
1803
1783
1858
1970
2086
2128
2077
1963
1855
1808
1855
1958
2069
2128
2094
1983
1871
1802
1831
1937
2064
2131
2111
2005
1862
1771
1783
1881
2021
2149
2203
2143
1994
1846
1775
1802
1883
1983
2043
2028
1936
1825
1749
1763
1835
1923
1979
1949
1840
1684
1555
1497
1524
1610
1695
1734
1695
1617
1552
1559
1664
1834
2000
2093
2084
1995
1883
1814
1855
1965
2099
2192
2195
2123
1992
1895
1879
1952
2075
2176
2203
2134
2023
1923
1898
1957
2066
2186
2249
2212
2115
1987
1905
1920
2017
2155
2239
2233
2148
2022
1926
1927
2018
2159
2277
2315
2250
2138
2029
1987
2034
2155
2274
2337
2315
2221
2117
2067
2096
2219
2357
2450
2435
2347
2237
2160
2155
2230
2351
2448
2465
2391
2256
2130
2091
2138
2242
2361
2407
2359
2236
2097
2015
2032
2116
2235
2311
2290
2189
2046
1943
1919
1984
2090
2176
2198
2146
2028
1922
1877
1919
2023
2118
2166
2110
1994
1882
1815
1849
1949
2086
2178
2176
2087
1961
1872
1865
1932
2047
2161
2194
2123
1983
1851
1799
1853
1969
2085
2146
2112
2000
1878
1797
1826
1943
2080
2141
2112
2005
1882
1795
1793
1874
2001
2121
2148
2077
1956
1838
1788
1829
1941
2057
2115
2090
1984
1870
1791
1808
1898
2007
2106
2110
2026
1899
1808
1794
1858
1968
2077
2113
2047
1926
1815
1779
1839
1953
2075
2139
2110
1997
1889
1826
1838
1926
2031
2103
2098
2015
1903
1816
1813
1887
2013
2128
2163
2112
1978
1845
1783
1823
1936
2047
2107
2070
1963
1840
1779
1808
1911
2032
2119
2109
2013
1899
1808
1783
1856
1973
2085
2109
2031
1899
1791
1765
1829
1945
2064
2128
2095
1983
1862
1808
1857
1969
2101
2191
2185
2086
1930
1805
1759
1806
1909
2013
2047
1989
1875
1757
1699
1727
1801
1872
1904
1847
1712
1553
1439
1421
1490
1609
1700
1717
1680
1603
1582
1635
1780
1967
2120
2178
2122
2003
1895
1855
1909
2029
2148
2199
2161
2047
1936
1875
1907
2000
2128
2208
2207
2123
2005
1917
1903
1970
2099
2202
2237
2167
2028
1908
1867
1930
2058
2196
2270
2226
2118
1994
1933
1958
2073
2203
2282
2282
2213
2110
2032
2036
2128
2257
2363
2384
2303
2176
2067
2032
2099
2222
2348
2411
2372
2266
2142
2077
2109
2212
2335
2414
2391
2289
2160
2079
2082
2149
2256
2347
2365
2294
2170
2063
1999
2023
2121
2218
2256
2207
2092
1954
1877
1892
1984
2110
2182
2166
2066
1920
1827
1821
1899
2021
2115
2134
2063
1936
1818
1778
1835
1949
2066
2118
2082
1968
1845
1776
1808
1907
2032
2112
2100
2000
1879
1798
1795
1867
1983
2083
2101
2022
1892
1775
1732
1791
1902
1996
2041
1990
1865
1740
1673
1691
1794
1927
2010
1995
1895
1771
1674
1661
1743
1872
1974
2001
1946
1829
1724
1685
1745
1869
1983
2035
1997
1882
1759
1680
1692
1791
1921
2005
1994
1898
1767
1680
1669
1755
1872
1983
2014
1959
1842
1731
1684
1738
1851
1965
2015
1970
1846
1738
1682
1718
1829
1954
2047
2041
1952
1824
1724
1699
1771
1877
1968
1986
1929
1815
1712
1675
1727
1844
1966
2029
1985
1879
1758
1696
1727
1821
1942
2021
2006
1918
1798
1713
1711
1792
1914
2007
2032
1954
1837
1733
1707
1771
1899
2023
2095
2064
1959
1856
1786
1796
1878
1977
2026
1991
1887
1771
1679
1666
1747
1856
1921
1888
1775
1616
1487
1430
1465
1535
1619
1636
1568
1456
1359
1344
1434
1611
1804
1941
1982
1921
1829
1772
1777
1863
1994
2102
2130
2064
1936
1825
1786
1843
1965
2075
2119
2087
1988
1886
1831
1871
1969
2091
2167
2153
2047
1922
1842
1861
1962
2087
2191
2209
2139
2013
1905
1878
1937
2062
2183
2243
2201
2082
1959
1905
1945
2063
2198
2288
2289
2210
2096
2017
2023
2125
2260
2369
2393
2325
2207
2110
2071
2133
2247
2370
2419
2378
2259
2139
2064
2087
2178
2307
2383
2366
2268
2129
2031
2015
2099
2211
2305
2316
2226
2087
1954
1914
1965
2082
2195
2237
2183
2054
1905
1827
1857
1953
2066
2142
2115
2015
1897
1815
1825
1911
2047
2148
2157
2067
1935
1825
1791
1856
1979
2103
2155
2112
1996
1870
1793
1811
1905
2027
2111
2098
2000
1875
1795
1805
1887
2000
2096
2107
2021
1901
1808
1787
1855
1959
2061
2097
2037
1919
1794
1724
1744
1835
1954
2033
2032
1946
1824
1730
1729
1812
1939
2042
2071
2015
1906
1794
1754
1810
1935
2038
2084
2019
1901
1776
1715
1751
1872
2012
2099
2102
2007
1879
1789
1785
1863
1973
2064
2064
1983
1869
1776
1759
1837
1963
2094
2141
2112
1981
1835
1767
1792
1879
1979
2032
2012
1918
1810
1742
1753
1846
1965
2062
2064
1990
1872
1776
1744
1806
1918
2020
2073
2038
1931
1813
1761
1802
1906
2032
2125
2103
2005
1874
1794
1797
1881
2004
2119
2158
2102
1983
1866
1819
1863
1967
2062
2090
2018
1897
1776
1711
1726
1823
1943
2001
1955
1814
1648
1520
1475
1523
1603
1653
1635
1553
1457
1405
1439
1584
1774
1953
2069
2063
1968
1864
1813
1865
1982
2107
2178
2173
2093
1969
1888
1888
1975
2098
2177
2185
2102
1970
1864
1846
1921
2058
2181
2234
2195
2095
1978
1917
1946
2059
2190
2272
2258
2176
2044
1951
1954
2043
2166
2273
2295
2208
2103
2001
1987
2069
2195
2309
2349
2301
2205
2108
2054
2097
2207
2349
2423
2418
2341
2229
2145
2142
2238
2375
2479
2493
2410
2261
2157
2128
2192
2316
2418
2455
2401
2277
2134
2054
2066
2160
2261
2321
2295
2195
2061
1957
1952
2042
2172
2256
2254
2175
2043
1925
1887
1949
2069
2176
2215
2156
2018
1886
1812
1840
1956
2096
2177
2160
2055
1914
1833
1847
1936
2062
2138
2129
2041
1911
1810
1802
1875
1998
2095
2115
2060
1950
1840
1779
1818
1920
2043
2127
2111
2000
1868
1778
1777
1861
1989
2096
2111
2027
1904
1808
1791
1856
1968
2085
2116
2058
1933
1815
1770
1812
1919
2034
2117
2093
1985
1866
1785
1789
1863
1979
2071
2090
1999
1874
1787
1776
1855
1976
2093
2126
2066
1951
1825
1767
1808
1914
2031
2098
2073
1983
1865
1786
1797
1895
2029
2117
2123
2032
1905
1797
1761
1817
1938
2055
2093
2033
1918
1795
1739
1771
1874
2007
2075
2047
1954
1827
1745
1761
1849
1968
2074
2097
2027
1904
1808
1792
1852
1965
2075
2100
2043
1942
1837
1781
1821
1956
2096
2179
2159
2038
1887
1783
1767
1840
1944
2022
2015
1945
1840
1761
1741
1786
1862
1927
1920
1835
1681
1528
1438
1428
1494
1584
1645
1638
1601
1533
1524
1599
1744
1921
2064
2103
2045
1931
1843
1821
1897
2018
2129
2173
2134
2013
1897
1839
1872
1984
2109
2177
2158
2070
1955
1887
1895
1981
2110
2192
2203
2135
2015
1921
1898
1953
2079
2197
2256
2225
2106
1978
1915
1954
2069
2203
2287
2275
2183
2059
1983
2009
2114
2256
2352
2356
2288
2166
2066
2055
2131
2267
2385
2446
2416
2301
2175
2111
2145
2257
2384
2454
2433
2324
2186
2098
2098
2174
2279
2371
2378
2292
2165
2047
2011
2071
2183
2273
2304
2241
2109
1968
1879
1895
1981
2097
2160
2128
2032
1909
1834
1838
1920
2032
2121
2119
2038
1920
1817
1795
1867
1984
2089
2121
2064
1939
1831
1789
1835
1949
2085
2157
2114
2000
1874
1795
1799
1882
2003
2098
2101
2023
1915
1818
1798
1863
1979
2095
2119
2045
1923
1809
1761
1808
1921
2062
2128
2089
1973
1851
1764
1769
1860
1979
2068
2077
1990
1862
1762
1746
1834
1955
2066
2103
2032
1907
1787
1732
1780
1902
2033
2115
2096
1986
1859
1781
1808
1909
2032
2123
2118
2026
1899
1808
1797
1854
1984
2098
2135
2085
1947
1826
1762
1794
1902
2021
2096
2059
1936
1803
1725
1747
1863
2004
2103
2098
2001
1877
1773
1743
1814
1930
2035
2079
2017
1904
1778
1727
1776
1897
2029
2110
2096
2000
1856
1775
1800
1905
2039
2145
2160
2081
1950
1840
1797
1839
1931
2009
2026
1973
1867
1767
1737
1808
1930
2032
2077
2004
1861
1698
1573
1528
1569
1639
1690
1687
1622
1535
1483
1503
1614
1783
1937
2028
2013
1929
1849
1824
1879
2010
2158
2227
2192
2084
1949
1863
1881
1978
2111
2207
2220
2145
2013
1917
1902
1967
2078
2187
2219
2158
2037
1936
1903
1963
2088
2207
2287
2265
2160
2015
1927
1947
2054
2192
2290
2309
2243
2125
2021
2000
2082
2221
2348
2402
2355
2239
2102
2039
2095
2218
2342
2424
2409
2325
2213
2134
2142
2224
2347
2443
2421
2327
2192
2086
2078
2155
2277
2384
2421
2355
2229
2096
2031
2065
2160
2262
2310
2274
2162
2025
1935
1930
2000
2112
2185
2178
2098
1975
1884
1862
1922
2037
2140
2167
2093
1959
1837
1792
1842
1962
2099
2161
2133
2015
1895
1831
1846
1936
2046
2128
2129
2039
1914
1814
1795
1876
2014
2131
2165
2098
1967
1854
1809
1841
1938
2058
2112
2070
1966
1845
1773
1793
1897
2032
2127
2112
2021
1894
1786
1757
1840
1968
2087
2131
2066
1934
1823
1778
1811
1920
2032
2088
2043
1939
1838
1773
1803
1899
2020
2112
2118
2035
1921
1824
1794
1863
1985
2097
2131
2070
1941
1825
1780
1827
1939
2059
2107
2066
1955
1824
1734
1742
1843
1983
2093
2096
2010
1890
1799
1781
1860
1970
2079
2112
2053
1934
1818
1757
1789
1892
2021
2109
2094
1991
1861
1779
1803
1905
2037
2121
2112
2017
1893
1803
1807
1895
2037
2162
2192
2115
1972
1835
1763
1791
1890
1995
2063
2035
1953
1849
1783
1783
1841
1932
2000
1979
1878
1723
1583
1512
1535
1628
1712
1735
1690
1611
1566
1583
1685
1857
2030
2133
2129
2043
1935
1870
1889
1974
2087
2176
2176
2083
1948
1851
1837
1921
2067
2187
2221
2162
2034
1911
1875
1936
2045
2176
2251
2239
2139
2006
1923
1951
2064
2198
2275
2261
2166
2031
1927
1904
1999
2128
2230
2282
2229
2134
2034
1990
2038
2160
2290
2359
2339
2243
2128
2057
2083
2191
2331
2436
2451
2371
2249
2154
2146
2218
2331
2420
2431
2347
2203
2086
2033
2100
2202
2313
2368
2319
2210
2089
2009
2022
2110
2217
2282
2263
2164
2022
1904
1857
1918
2031
2147
2182
2115
1989
1879
1833
1872
1973
2085
2139
2096
1982
1856
1779
1795
1885
2007
2094
2096
2019
1909
1828
1824
1904
2029
2123
2139
2062
1927
1819
1773
1825
1939
2047
2125
2085
1968
1844
1770
1786
1883
1999
2087
2086
2003
1874
1776
1759
1840
1968
2069
2096
2032
1923
1814
1774
1814
1911
2021
2083
2042
1940
1822
1757
1777
1881
2001
2095
2080
1997
1874
1783
1776
1856
1970
2079
2103
2059
1939
1831
1792
1856
1967
2081
2130
2096
1991
1876
1810
1840
1947
2071
2149
2128
2023
1875
1755
1723
1795
1919
2032
2074
2014
1903
1790
1754
1820
1941
2064
2113
2067
1954
1829
1755
1779
1871
1996
2096
2095
2005
1883
1781
1754
1821
1946
2062
2096
2028
1919
1818
1785
1853
1984
2120
2175
2125
1993
1847
1745
1744
1823
1938
2026
2027
1945
1821
1730
1709
1754
1854
1933
1943
1857
1710
1557
1467
1463
1535
1645
1712
1714
1661
1600
1600
1692
1856
2033
2166
2176
2086
1943
1856
1842
1911
2023
2138
2177
2112
1983
1872
1834
1891
2000
2123
2184
2165
2071
1957
1904
1936
2032
2158
2239
2240
2159
2033
1936
1910
1981
2103
2199
2237
2179
2069
1967
1930
1989
2118
2243
2304
2278
2170
2043
1983
2011
2128
2262
2353
2369
2304
2191
2096
2101
2192
2320
2432
2471
2418
2303
2189
2125
2150
2241
2345
2405
2373
2261
2131
2062
2085
2182
2298
2381
2375
2286
2143
2029
2003
2069
2176
2256
2255
2171
2038
1935
1892
1938
2045
2157
2190
2137
2019
1887
1808
1830
1935
2055
2135
2127
2032
1911
1821
1811
1885
2000
2112
2145
2091
1967
1856
1810
1859
1965
2087
2142
2101
1972
1845
1786
1814
1919
2037
2122
2101
1991
1867
1794
1797
1882
2005
2107
2125
2058
1918
1794
1750
1813
1942
2075
2125
2071
1955
1837
1757
1775
1869
1984
2070
2065
1977
1855
1776
1774
1852
1961
2066
2096
2025
1914
1814
1776
1831
1955
2069
2119
2083
1969
1854
1797
1827
1936
2063
2141
2133
2041
1919
1818
1802
1879
2000
2111
2131
2047
1904
1779
1735
1798
1923
2046
2111
2064
1951
1827
1759
1792
1889
2007
2087
2077
1986
1863
1776
1776
1851
1971
2074
2095
2016
1902
1794
1758
1813
1930
2059
2127
2097
1998
1889
1834
1872
1987
2112
2173
2139
2027
1885
1791
1771
1839
1949
2036
2064
1994
1869
1727
1639
1646
1719
1808
1835
1771
1642
1503
1415
1407
1489
1642
1763
1808
1787
1727
1690
1727
1847
1995
2122
2162
2098
1965
1841
1806
1872
1994
2121
2182
2150
2058
1939
1875
1902
1995
2119
2200
2199
2112
1979
1894
1888
1968
2102
2215
2246
2176
2059
1941
1904
1969
2090
2195
2245
2208
2103
1982
1920
1947
2059
2178
2259
2255
2174
2059
1983
1989
2096
2235
2352
2400
2356
2249
2123
2084
2139
2272
2399
2458
2417
2295
2174
2110
2131
2226
2349
2433
2425
2334
2205
2107
2094
2160
2271
2363
2372
2285
2142
2012
1964
2000
2115
2231
2281
2226
2101
1961
1868
1879
1978
2111
2177
2144
2033
1907
1821
1830
1918
2032
2121
2112
2032
1923
1830
1807
1872
1987
2096
2143
2096
1984
1871
1802
1819
1907
2027
2112
2106
2018
1894
1795
1799
1885
2007
2104
2115
2040
1915
1806
1765
1822
1921
2033
2096
2065
1951
1837
1766
1778
1867
1980
2058
2045
1951
1831
1742
1737
1820
1947
2042
2064
1986
1872
1767
1726
1783
1908
2038
2111
2079
1949
1826
1754
1787
1904
2033
2117
2110
2015
1894
1795
1789
1858
1977
2091
2112
2038
1905
1786
1762
1821
1936
2058
2103
2032
1913
1789
1737
1777
1886
2000
2074
2066
1971
1853
1765
1755
1832
1950
2053
2079
2010
1889
1787
1754
1808
1921
2032
2081
2027
1909
1792
1719
1761
1875
2019
2118
2124
2052
1932
1856
1859
1933
2034
2112
2102
1998
1851
1749
1723
1777
1877
1976
2015
1957
1808
1637
1520
1520
1601
1690
1729
1677
1535
1393
1299
1316
1431
1631
1807
1910
1910
1847
1776
1773
1851
1981
2115
2187
2146
2034
1910
1843
1875
1972
2102
2192
2182
2101
1978
1893
1878
1968
2101
2195
2224
2169
2043
1935
1902
1971
2090
2195
2243
2192
2074
1951
1903
1936
2047
2179
2256
2243
2160
2042
1966
1963
2055
2189
2300
2323
2262
2146
2043
2016
2110
2240
2361
2415
2384
2292
2180
2118
2157
2256
2384
2458
2445
2350
2230
2144
2134
2239
2366
2449
2433
2346
2210
2093
2047
2113
2230
2329
2368
2306
2179
2054
1975
1997
2083
2190
2247
2215
2113
1980
1893
1895
1965
2059
2132
2149
2081
1978
1878
1843
1895
2000
2109
2145
2096
1984
1870
1807
1841
1954
2091
2163
2146
2043
1918
1829
1824
1904
2026
2127
2160
2095
1965
1842
1796
1852
1970
2090
2135
2083
1953
1818
1755
1794
1904
2025
2112
2111
2021
1893
1792
1783
1860
1983
2085
2103
2031
1904
1808
1776
1841
1963
2074
2113
2053
1933
1815
1755
1779
1873
1996
2078
2060
1970
1862
1784
1797
1887
2011
2118
2135
2047
1925
1817
1791
1857
1974
2090
2139
2102
1974
1843
1763
1793
1882
1983
2063
2045
1968
1871
1785
1776
1847
1968
2067
2077
1989
1872
1777
1757
1819
1945
2061
2112
2063
1945
1830
1773
1807
1908
2034
2124
2102
1984
1845
1746
1744
1836
1972
2099
2157
2112
1985
1869
1806
1840
1926
2025
2073
2031
1933
1811
1742
1770
1869
1967
2003
1947
1821
1662
1533
1488
1529
1614
1661
1651
1587
1498
1434
1457
1594
1785
1968
2083
2091
2005
1907
1855
1889
1995
2112
2176
2168
2080
1964
1886
1887
1971
2080
2167
2179
2115
1998
1905
1886
1953
2082
2189
2229
2182
2067
1953
1897
1934
2035
2159
2238
2224
2133
2023
1946
1951
2034
2175
2270
2289
2226
2117
2034
2017
2082
2191
2299
2352
2330
2246
2159
2097
2119
2220
2338
2420
2407
2320
2209
2134
2141
2235
2358
2451
2455
2384
2256
2148
2111
2176
2298
2410
2443
2385
2256
2126
2038
2060
2142
2247
2316
2282
2167
2032
1943
1935
1999
2119
2211
2229
2139
1993
1873
1826
1881
1983
2096
2137
2093
1985
1881
1813
1831
1930
2064
2139
2115
2015
1897
1817
1805
1889
2015
2129
2154
2066
1933
1815
1775
1831
1939
2055
2103
2059
1941
1827
1769
1815
1936
2075
2142
2113
2003
1876
1787
1771
1843
1953
2062
2081
2015
1900
1798
1770
1819
1925
2027
2064
2010
1904
1799
1745
1788
1895
2000
2064
2037
1947
1830
1761
1771
1861
1990
2091
2112
2032
1913
1809
1776
1845
1963
2071
2117
2068
1951
1842
1803
1855
1971
2086
2134
2091
1952
1817
1728
1743
1839
1965
2070
2079
2005
1889
1789
1746
1808
1930
2035
2082
2028
1915
1809
1759
1792
1898
2022
2114
2098
1999
1869
1773
1759
1848
1973
2079
2095
2026
1927
1840
1815
1878
1983
2070
2070
1974
1836
1707
1653
1694
1820
1954
2035
2015
1893
1745
1638
1618
1664
1738
1787
1745
1629
1463
1350
1328
1433
1622
1820
1947
1981
1931
1849
1799
1843
1955
2087
2163
2157
2063
1937
1859
1862
1952
2087
2176
2193
2126
2001
1899
1874
1943
2069
2183
2226
2156
2041
1938
1887
1925
2042
2175
2256
2250
2160
2035
1957
1958
2043
2169
2258
2279
2222
2112
2015
2003
2087
2210
2315
2351
2291
2180
2074
2029
2089
2193
2320
2400
2399
2320
2223
2160
2173
2256
2369
2448
2448
2363
2238
2135
2112
2176
2299
2415
2462
2403
2271
2130
2063
2096
2198
2306
2365
2321
2199
2061
1968
1968
2046
2165
2252
2246
2155
2013
1890
1851
1907
2018
2118
2161
2115
1999
1883
1836
1890
1988
2103
2160
2128
2028
1901
1826
1840
1935
2064
2133
2128
2032
1905
1801
1779
1841
1967
2086
2125
2075
1968
1862
1805
1840
1930
2045
2112
2087
1983
1869
1792
1801
1879
2005
2109
2122
2032
1901
1802
1790
1856
1967
2077
2125
2065
1942
1844
1791
1835
1945
2064
2140
2123
2006
1872
1787
1783
1872
1999
2096
2110
2037
1921
1837
1819
1887
2000
2101
2129
2063
1936
1807
1737
1777
1895
2022
2095
2062
1943
1827
1761
1762
1871
1989
2101
2115
2021
1874
1760
1744
1825
1956
2063
2095
2032
1919
1807
1764
1812
1920
2032
2099
2080
1967
1819
1727
1724
1835
1989
2096
2116
2055
1930
1825
1791
1830
1922
2001
2007
1936
1827
1729
1713
1776
1887
2006
2063
2004
1872
1721
1601
1565
1597
1664
1698
1666
1566
1461
1406
1437
1561
1744
1935
2037
2027
1946
1858
1829
1895
2011
2137
2201
2167
2063
1919
1834
1845
1943
2084
2190
2207
2118
1979
1875
1859
1930
2059
2168
2207
2176
2083
1978
1919
1961
2066
2177
2246
2224
2126
1997
1904
1919
2014
2159
2261
2287
2214
2102
2007
1988
2064
2195
2316
2352
2299
2195
2093
2063
2119
2237
2362
2433
2414
2306
2173
2094
2110
2222
2367
2463
2471
2387
2256
2145
2113
2164
2265
2352
2375
2316
2201
2082
2015
2045
2139
2240
2301
2262
2159
2011
1908
1899
1970
2086
2153
2154
2062
1922
1821
1792
1863
1987
2102
2139
2082
1968
1866
1821
1863
1971
2089
2151
2112
1999
1875
1807
1819
1914
2040
2149
2159
2074
1947
1846
1831
1901
2000
2108
2134
2081
1952
1838
1791
1817
1914
2018
2098
2080
1972
1859
1791
1815
1906
2037
2123
2116
2032
1906
1815
1792
1859
1979
2095
2128
2066
1951
1837
1797
1845
1968
2102
2167
2138
2015
1887
1811
1822
1906
2023
2112
2125
2031
1887
1784
1756
1821
1950
2066
2112
2062
1935
1813
1749
1792
1902
2017
2089
2053
1963
1849
1776
1790
1872
1986
2091
2096
2012
1886
1791
1781
1870
1997
2102
2130
2075
1954
1835
1776
1813
1922
2047
2123
2096
1993
1882
1836
1872
1984
2118
2205
2192
2083
1920
1776
1744
1794
1904
2007
2046
1998
1904
1797
1729
1734
1824
1925
1969
1920
1777
1614
1483
1437
1487
1607
1709
1745
1714
1646
1614
1654
1783
1953
2098
2167
2123
2010
1905
1873
1934
2054
2175
2227
2189
2067
1935
1860
1875
1967
2083
2171
2189
2128
1991
1888
1861
1943
2108
2241
2273
2192
2054
1934
1890
1951
2080
2197
2256
2223
2112
1990
1919
1946
2057
2192
2288
2298
2207
2078
1975
1967
2047
2187
2310
2354
2305
2196
2097
2065
2127
2259
2384
2439
2405
2299
2188
2115
2133
2229
2352
2430
2421
2337
2210
2099
2067
2128
2233
2336
2359
2267
2127
2000
1951
2000
2112
2218
2255
2206
2092
1958
1873
1883
1971
2096
2185
2175
2066
1936
1840
1815
1875
2000
2095
2115
2064
1943
1836
1793
1845
1971
2098
2162
2133
2020
1883
1819
1842
1947
2083
2158
2157
2067
1950
1851
1835
1898
2007
2112
2135
2067
1947
1840
1795
1850
1949
2064
2118
2077
1973
1845
1769
1776
1872
2000
2098
2097
2006
1883
1781
1766
1835
1957
2079
2115
2058
1933
1831
1795
1855
1971
2106
2160
2113
1991
1861
1791
1819
1919
2047
2126
2115
2032
1910
1811
1803
1870
1984
2083
2095
2017
1888
1779
1759
1818
1932
2038
2097
2064
1956
1831
1755
1777
1876
1998
2091
2093
2003
1887
1794
1790
1869
1983
2074
2098
2027
1915
1811
1776
1826
1939
2070
2148
2137
2041
1929
1850
1866
1943
2047
2112
2095
1979
1827
1714
1711
1791
1905
2013
2045
1968
1818
1678
1615
1661
1760
1839
1861
1781
1622
1471
1381
1396
1520
1701
1850
1907
1872
1805
1757
1793
1901
2047
2174
2206
2141
2006
1888
1831
1879
1990
2123
2192
2157
2055
1931
1867
1904
2002
2141
2228
2225
2128
1994
1904
1893
1968
2089
2192
2226
2163
2042
1933
1904
1968
2086
2214
2279
2239
2123
1990
1923
1954
2071
2193
2286
2287
2204
2087
1998
1994
2092
2239
2358
2394
2330
2213
2114
2087
2143
2265
2386
2436
2397
2279
2157
2103
2133
2226
2342
2410
2384
2269
2123
2015
2000
2080
2199
2298
2320
2251
2129
2006
1958
1999
2109
2210
2253
2191
2064
1913
1824
1842
1934
2065
2155
2144
2041
1904
1786
1763
1857
1987
2106
2134
2078
1962
1847
1804
1854
1975
2112
2176
2139
2026
1906
1840
1856
1943
2064
2141
2141
2046
1913
1808
1795
1866
1985
2096
2126
2057
1923
1815
1775
1836
1959
2095
2143
2089
1967
1837
1771
1795
1906
2041
2133
2118
2006
1858
1755
1759
1841
1978
2093
2112
2035
1917
1808
1775
1834
1950
2069
2129
2094
1973
1838
1759
1781
1894
2035
2134
2125
2022
1882
1788
1787
1872
1999
2111
