1515
1663
1854
2043
2237
2407
2559
2698
2787
2814
2745
2590
2399
2209
2039
1943
1904
1909
1919
1895
1846
1790
1758
1759
1798
1850
1932
1991
2029
2032
2005
1984
1975
1987
2022
2069
2075
2058
2021
1990
1983
2010
2057
2096
2106
2095
2064
2027
2020
2033
2065
2098
2131
2158
2148
2110
2087
2079
2107
2147
2177
2193
2173
2135
2111
2109
2131
2175
2225
2254
2244
2222
2183
2164
2183
2237
2293
2336
2345
2331
2323
2320
2323
2337
2375
2427
2457
2449
2427
2387
2369
2389
2429
2469
2485
2470
2442
2398
2368
2357
2372
2381
2384
2364
2332
2291
2246
2206
2192
2203
2223
2217
2175
2121
2065
2011
2014
2047
2090
2107
2096
2082
2032
1999
1987
2003
2032
2061
2064
2038
2009
1982
1983
2005
2047
2090
2097
2069
2022
2000
1998
2011
2039
2095
2128
2128
2096
2045
2010
2000
2034
2077
2107
2124
2117
2076
2032
2024
2043
2085
2111
2107
2070
2018
1964
1936
1941
1975
2019
2057
2044
2012
1966
1919
1922
1975
2042
2079
2080
2061
2015
1971
1952
1959
1983
1988
1957
1868
1738
1607
1497
1435
1423
1472
1565
1657
1755
1861
1994
2175
2366
2535
2623
2605
2491
2333
2145
1968
1840
1776
1765
1750
1701
1641
1595
1571
1584
1643
1721
1793
1846
1879
1897
1915
1978
2034
2098
2145
2160
2133
2101
2064
2037
2057
2094
2144
2178
2174
2150
2116
2093
2087
2112
2151
2179
2178
2160
2130
2100
2096
2141
2189
2243
2260
2258
2231
2182
2181
2198
2242
2275
2284
2258
2230
2192
2199
2247
2309
2368
2406
2413
2391
2363
2343
2353
2395
2443
2491
2501
2496
2478
2465
2474
2498
2542
2585
2599
2590
2559
2499
2458
2454
2477
2495
2501
2494
2461
2399
2345
2319
2306
2304
2300
2301
2256
2186
2125
2096
2096
2127
2155
2166
2139
2089
2046
2031
2047
2086
2125
2147
2145
2112
2067
2037
2039
2084
2129
2160
2150
2117
2088
2074
2065
2094
2117
2145
2165
2153
2111
2081
2067
2065
2092
2125
2149
2158
2116
2068
2023
2015
2055
2112
2151
2155
2119
2069
2031
2027
2032
2047
2064
2073
2064
2017
1981
1962
1971
2010
2037
2069
2064
2034
2005
1989
1998
2020
2045
2065
2068
2031
1978
1906
1847
1794
1767
1726
1670
1616
1592
1611
1671
1779
1931
2122
2306
2442
2512
2539
2501
2445
2363
2250
2112
1963
1824
1712
1648
1648
1664
1701
1727
1730
1714
1683
1675
1685
1763
1857
1954
2032
2080
2084
2046
2027
2039
2081
2127
2156
2153
2125
2094
2070
2064
2084
2115
2152
2166
2143
2112
2082
2079
2103
2144
2199
2219
2217
2183
2160
2141
2150
2160
2200
2240
2247
2225
2181
2144
2129
2161
2223
2288
2325
2322
2290
2249
2238
2263
2320
2370
2405
2407
2383
2355
2351
2352
2384
2438
2478
2480
2462
2423
2381
2362
2395
2450
2496
2512
2480
2435
2387
2354
2342
2347
2361
2355
2318
2250
2171
2119
2101
2118
2145
2168
2163
2128
2086
2021
2001
2027
2076
2120
2134
2114
2064
2021
1997
2003
2032
2070
2096
2109
2077
2030
2006
2017
2047
2075
2111
2113
2103
2081
2075
2066
2076
2106
2143
2163
2143
2096
2037
2001
2014
2053
2095
2110
2100
2058
2000
1972
1987
2018
2064
2085
2087
2042
1989
1940
1919
1932
1968
1999
2021
2006
1970
1935
1920
1927
1965
1991
2015
2005
1986
1943
1907
1874
1875
1881
1857
1799
1698
1584
1499
1457
1487
1590
1727
1872
2007
2123
2226
2340
2457
2549
2598
2559
2465
2277
2061
1871
1762
1751
1776
1790
1776
1728
1668
1628
1621
1671
1757
1849
1921
1948
1952
1955
1969
1995
2022
2069
2105
2091
2041
2000
1991
1998
2046
2090
2122
2130
2123
2096
2059
2028
2030
2076
2117
2139
2120
2084
2044
2032
2045
2093
2134
2160
2162
2134
2102
2081
2085
2105
2161
2208
2239
2227
2207
2178
2176
2196
2241
2288
2311
2289
2265
2255
2261
2288
2337
2390
2427
2417
2395
2366
2337
2334
2355
2394
2427
2431
2401
2353
2309
2289
2300
2323
2343
2322
2291
2255
2197
2161
2160
2173
2186
2192
2176
2133
2087
2046
2032
2035
2042
2047
2047
2011
1980
1952
1938
1969
2023
2071
2091
2070
2018
1973
1958
1970
2010
2063
2080
2075
2041
2019
1999
1997
2013
2058
2089
2092
2064
2019
1990
1974
1983
2028
2095
2130
2143
2113
2095
2065
2039
2021
2033
2037
2023
2000
1967
1941
1934
1951
1986
2022
2027
1993
1950
1904
1893
1917
1962
1997
2006
2003
1966
1926
1906
1919
1953
1987
1991
1970
1902
1782
1655
1535
1488
1469
1488
1524
1581
1630
1729
1885
2089
2302
2480
2619
2675
2655
2559
2442
2321
2210
2111
2019
1963
1903
1842
1787
1744
1721
1728
1776
1814
1837
1840
1856
1882
1935
1995
2033
2062
2047
2015
1981
1950
1952
1970
2016
2047
2074
2066
2035
1997
1997
2032
2089
2126
2129
2103
2078
2032
2017
2023
2064
2111
2127
2131
2116
2087
2073
2089
2128
2175
2196
2190
2158
2135
2126
2133
2173
2239
2291
2299
2263
2214
2176
2173
2219
2273
2327
2358
2355
2322
2287
2267
2291
2335
2391
2422
2412
2368
2322
2287
2269
2293
2339
2384
2397
2372
2327
2281
2240
2234
2255
2258
2253
2212
2154
2096
2047
2046
2074
2109
2114
2094
2047
2015
1991
1973
1990
2037
2091
2100
2071
2022
1984
1966
1976
2011
2062
2070
2047
2013
1974
1947
1953
1984
2031
2083
2087
2058
2007
1986
1987
2016
2064
2098
2119
2080
2035
2000
1984
2000
2026
2060
2073
2060
2027
1984
1962
1955
1979
2002
2018
1997
1957
1922
1891
1893
1929
1973
2011
2020
1989
1941
1904
1905
1926
1960
1984
1989
1984
1946
1903
1855
1806
1749
1677
1587
1505
1431
1375
1360
1423
1579
1773
1985
2190
2363
2508
2629
2711
2749
2749
2683
2556
2388
2201
2054
1969
1946
1934
1920
1912
1875
1829
1786
1773
1778
1821
1889
1957
2003
2012
2000
1969
1958
1973
2001
2027
2031
2029
1997
1957
1937
1963
2020
2075
2101
2074
2039
2005
1984
1995
2034
2096
2129
2133
2107
2067
2039
2032
2062
2102
2143
2161
2144
2115
2075
2064
2103
2160
2207
2238
2226
2196
2162
2149
2166
2206
2258
2307
2326
2311
2287
2257
2242
2267
2321
2390
2439
2455
2421
2373
2339
2337
2366
2390
2406
2388
2355
2283
2258
2249
2273
2309
2327
2314
2266
2205
2159
2128
2119
2150
2171
2166
2133
2084
2019
1984
1979
2003
2047
2078
2070
2035
1998
1972
1969
1996
2032
2064
2066
2019
1965
1930
1929
1962
1998
2042
2074
2066
2010
1954
1933
1948
1982
2028
2061
2059
2032
2007
2000
2003
2032
2071
2112
2114
2083
2031
1983
1949
1951
1989
2043
2083
2079
2029
1979
1949
1943
1964
1983
1995
1987
1966
1934
1908
1895
1906
1936
1954
1965
1936
1903
1872
1883
1916
1963
1984
1983
1919
1807
1670
1531
1424
1377
1382
1420
1467
1533
1650
1813
2032
2288
2547
2774
2898
2922
2848
2730
2598
2459
2353
2283
2225
2160
2071
1961
1885
1838
1840
1872
1894
1901
1879
1869
1871
1888
1933
1994
2057
2077
2038
1983
1923
1910
1921
1953
2000
2026
2021
1993
1949
1920
1927
1967
2030
2082
2099
2076
2043
2017
2018
2055
2096
2139
2160
2128
2083
2047
2047
2090
2131
2181
2209
2206
2174
2128
2111
2127
2164
2220
2268
2301
2314
2301
2282
2267
2291
2336
2379
2398
2395
2385
2373
2373
2400
2448
2480
2498
2480
2432
2397
2377
2393
2419
2455
2483
2474
2422
2350
2282
2262
2275
2297
2319
2297
2234
2147
2075
2047
2064
2091
2129
2144
2126
2099
2067
2032
2031
2058
2094
2107
2086
2031
1971
1923
1904
1942
1999
2039
2054
2031
1989
1949
1933
1951
1989
2019
2033
2026
1983
1947
1936
1960
2003
2064
2112
2114
2089
2032
1985
1968
1995
2055
2096
2096
2063
2013
1981
1955
1984
2022
2047
2059
2034
1983
1934
1909
1909
1934
1958
1968
1936
1881
1839
1827
1858
1927
1984
2032
2043
2023
1970
1934
1917
1919
1905
1872
1806
1705
1569
1426
1315
1284
1344
1469
1633
1783
1939
2112
2281
2463
2627
2736
2767
2695
2525
2314
2109
1946
1845
1815
1815
1818
1792
1728
1671
1651
1682
1746
1834
1920
1970
1979
1963
1957
1967
1995
2029
2069
2081
2081
2044
2001
1985
1997
2031
2079
2095
2086
2047
2011
1993
2001
2058
2113
2151
2147
2109
2064
2042
2058
2096
2137
2163
2175
2162
2142
2123
2113
2127
2160
2201
2224
2236
2214
2182
2154
2167
2192
2240
2291
2313
2303
2288
2290
2307
2343
2397
2437
2461
2442
2398
2374
2384
2403
2423
2453
2486
2483
2442
2401
2373
2382
2398
2423
2434
2415
2362
2291
2225
2203
2201
2221
2240
2224
2186
2118
2057
2030
2026
2036
2066
2082
2064
2030
1965
1921
1933
1974
2016
2047
2039
2000
1955
1930
1927
1957
1984
2010
2018
1991
1961
1913
1900
1923
1980
2030
2064
2070
2035
1984
1938
1938
1973
2010
2032
2024
1996
1953
1934
1938
1969
2003
2041
2062
2031
1983
1948
1939
1954
1977
1985
1986
1984
1953
1903
1859
1859
1902
1953
1990
1982
1952
1907
1873
1857
1885
1939
1991
2013
2015
1979
1919
1875
1877
1895
1904
1869
1785
1660
1530
1435
1386
1405
1486
1593
1703
1801
1908
2032
2178
2349
2482
2559
2533
2423
2258
2065
1893
1783
1749
1761
1753
1726
1681
1623
1583
1535
1591
1653
1711
1773
1809
1839
1853
1879
1935
1975
2018
2043
2026
1989
1947
1930
1945
1994
2032
2069
2078
2026
1966
1935
1942
1989
2034
2065
2055
2017
1994
1997
2002
2045
2102
2145
2160
2133
2089
2041
2016
2057
2103
2131
2160
2159
2130
2091
2080
2102
2146
2204
2246
2267
2242
2207
2187
2205
2254
2317
2353
2366
2345
2306
2292
2303
2331
2370
2407
2416
2388
2327
2285
2267
2288
2320
2352
2373
2358
2315
2255
2194
2160
2144
2158
2165
2160
2119
2054
1993
1968
1968
1986
2013
2011
1986
1948
1910
1902
1914
1955
2000
2032
2043
2001
1936
1875
1854
1875
1917
1939
1963
1955
1919
1892
1890
1918
1965
2009
2033
2032
2004
1963
1935
1923
1941
1991
2031
2032
2012
1993
1969
1965
1981
2014
2032
2032
2015
1987
1946
1918
1914
1948
1991
2009
1989
1954
1908
1866
1844
1856
1881
1906
1915
1888
1846
1822
1822
1859
1889
1923
1947
1920
1881
1842
1831
1847
1883
1935
1942
1883
1763
1645
1535
1467
1451
1474
1531
1590
1657
1741
1858
2005
2177
2342
2475
2521
2490
2395
2259
2104
1955
1856
1808
1789
1751
1686
1625
1585
1571
1581
1613
1658
1683
1699
1719
1749
1786
1846
1921
1974
2010
2003
1967
1920
1888
1901
1951
2002
2033
2023
1984
1955
1934
1931
1968
2019
2059
2053
2017
1983
1942
1936
1982
2035
2094
2113
2097
2047
1995
1971
2005
2072
2128
2158
2160
2144
2116
2099
2112
2149
2193
2232
2240
2223
2192
2171
2183
2222
2279
2320
2339
2331
2300
2256
2242
2255
2304
2367
2388
2385
2352
2322
2303
2301
2320
2350
2371
2357
2288
2218
2197
2192
2192
2186
2213
2216
2177
2115
2059
2013
2009
2027
2061
2071
2047
2011
1972
1936
1920
1941
1983
2013
2017
1984
1925
1887
1895
1936
1981
2023
2041
2017
1971
1936
1922
1942
1974
2015
2033
2031
2017
1977
1951
1953
1968
2015
2032
2001
1985
1980
1983
2002
2037
2077
2094
2083
2041
2010
1986
1979
1997
2031
2055
2041
2006
1965
1920
1899
1913
1948
1986
2011
1999
1959
1923
1896
1895
1910
1939
1968
1983
1971
1936
1888
1853
1867
1904
1936
1950
1923
1860
1770
1651
1569
1529
1510
1500
1507
1535
1607
1721
1878
2074
2269
2448
2592
2635
2599
2486
2349
2228
2122
2020
1952
1917
1861
1795
1747
1717
1717
1742
1761
1769
1757
1759
1778
1817
1878
1956
2018
2054
2043
2013
1971
1951
1966
2005
2047
2083
2068
2021
1987
1971
1983
2015
2064
2099
2110
2079
2041
2007
2011
2033
2079
2125
2150
2130
2091
2055
2039
2055
2096
2150
2176
2179
2160
2129
2113
2116
2151
2192
2231
2249
2247
2228
2222
2237
2261
2304
2349
2373
2367
2327
2305
2301
2329
2361
2389
2416
2417
2394
2355
2345
2359
2384
2416
2443
2437
2402
2338
2289
2263
2261
2269
2289
2288
2251
2182
2125
2081
2070
2090
2112
2133
2125
2079
2031
1987
1986
2000
2035
2069
2076
2043
1995
1953
1934
1965
2015
2064
2080
2042
1995
1959
1933
1949
2000
2047
2082
2082
2039
2013
2001
2010
2032
2055
2065
2064
2035
2000
1971
1968
1993
2057
2101
2117
2095
2041
1991
1961
1953
1982
2029
2063
2071
2043
2006
1981
1981
1984
2000
2021
2023
1989
1953
1917
1906
1935
1957
1971
1986
1981
1947
1918
1904
1908
1965
2000
2001
1968
1906
1849
1807
1763
1726
1685
1628
1557
1482
1453
1463
1535
1705
1918
2137
2346
2502
2614
2677
2702
2683
2623
2503
2350
2170
2005
1893
1831
1821
1839
1857
1857
1823
1779
1754
1757
1791
1846
1909
1974
2011
2007
1979
1948
1927
1932
1973
2023
2066
2077
2046
1986
1936
1923
1942
1995
2037
2043
2017
1993
1971
1975
2000
2044
2086
2096
2073
2029
1983
1968
2000
2055
2112
2135
2118
2081
2039
2025
2043
2096
2159
2222
2241
2231
2203
2174
2169
2197
2260
2317
2336
2329
2311
2285
2256
2256
2285
2320
2347
2348
2308
2255
2203
2206
2263
2345
2384
2377
2350
2300
2255
2230
2230
2252
2289
2293
2241
2175
2115
2087
2081
2091
2103
2115
2094
2032
1985
1953
1940
1956
1983
1990
1967
1904
1834
1793
1776
1807
1862
1928
1977
1985
1952
1905
1872
1865
1874
1889
1903
1924
1934
1925
1924
1947
1989
2029
2060
2071
2053
2000
1951
1919
1936
1977
2018
2071
2093
2043
1969
1899
1857
1858
1882
1931
1968
1987
1979
1968
1981
2005
2047
2091
2114
2109
2081
2042
1993
1973
1978
1984
1982
1965
1922
1868
1856
1895
1921
1937
1936
1891
1854
1833
1833
1858
1900
1942
1940
1881
1789
1654
1518
1403
1361
1377
1448
1535
1627
1751
1907
2064
2250
2501
2767
2960
3056
3019
2899
2747
2611
2506
2448
2429
2399
2329
2216
2091
1979
1897
1852
1859
1857
1818
1771
1737
1734
1773
1826
1867
1920
1947
1954
1937
1938
1957
1987
2039
2066
2058
2007
1979
1945
1949
1979
2018
2065
2082
2065
2045
2038
2047
2074
2098
2144
2149
2131
2125
2095
2071
2064
2096
2157
2186
2192
2166
2138
2113
2112
2151
2194
2243
2270
2273
2268
2263
2269
2290
2327
2378
2429
2465
2471
2438
2403
2387
2399
2438
2477
2490
2462
2415
2381
2387
2448
2507
2543
2542
2501
2442
2388
2352
2347
2352
2361
2359
2342
2314
2288
2256
2229
2224
2212
2185
2133
2053
1967
1918
1918
1957
2031
2092
2112
2112
2078
2026
2000
2025
2032
2042
2059
2054
2033
2006
1991
1994
2017
2031
2033
2065
2091
2098
2121
2154
2182
2213
2201
2162
2087
1981
1875
1808
1795
1813
1850
1856
1857
1841
1833
1854
1904
1973
2043
2089
2111
2106
2061
2011
2000
2007
2015
2019
2007
1962
1920
1900
1884
1895
1917
1949
1959
1923
1872
1823
1797
1803
1835
1876
1919
1904
1854
1807
1782
1777
1814
1882
1930
1923
1861
1757
1619
1490
1397
1356
1349
1371
1411
1478
1584
1728
1949
2224
2513
2788
2977
3047
3015
2893
2736
2577
2431
2308
2207
2123
2032
1955
1889
1822
1758
1714
1703
1683
1664
1645
1648
1682
1753
1835
1904
1936
1936
1902
1857
1829
1840
1884
1936
1966
1957
1923
1878
1846
1857
1895
1949
1981
1981
1940
1890
1857
1867
1904
1957
2000
2028
2028
2003
1975
1974
2007
2041
2077
2087
2062
2015
2000
2009
2063
2111
2160
2202
2219
2202
2176
2179
2192
2234
2264
2299
2290
2279
2258
2263
2290
2341
2407
2463
2481
2467
2429
2386
2384
2399
2432
2465
2483
2477
2426
2353
2315
2304
2311
2323
2323
2302
2240
2178
2117
2096
2093
2118
2157
2155
2110
2063
2016
1987
1982
2017
2064
2065
2035
2003
1984
1967
1973
2005
2042
2069
2069
2031
1982
1936
1904
1916
1961
2000
2006
1986
1942
1887
1878
1927
1985
2047
2082
2071
2020
1955
1911
1899
1930
1984
2027
2032
2022
1995
1965
1950
1977
2035
2084
2096
2067
2019
1968
1934
1936
1971
2006
2025
1998
1953
1909
1874
1873
1910
1962
1994
1987
1958
1907
1877
1863
1888
1925
1968
1989
1971
1914
1856
1838
1861
1911
1954
1968
1923
1827
1709
1600
1503
1442
1422
1440
1482
1552
1648
1776
1938
2143
2359
2557
2679
2688
2583
2417
2237
2082
1961
1890
1846
1806
1759
1723
1694
1670
1655
1662
1677
1686
1684
1679
1683
1739
1826
1915
1999
2043
2042
2009
1975
1956
1977
2022
2074
2086
2066
2018
1971
1946
1950
1995
2062
2112
2123
2085
2000
1936
1933
1971
2042
2115
2155
2175
2157
2131
2126
2135
2173
2207
2231
2237
2203
2167
2144
2151
2176
2218
2251
2279
2278
2256
2239
2249
2288
2327
2363
2371
2370
2352
2333
2330
2359
2413
2466
2496
2494
2465
2419
2387
2381
2397
2422
2434
2431
2416
2384
2352
2325
2304
2288
2275
2254
2222
2174
2096
2020
2017
2064
2110
2130
2123
2090
2037
1985
1965
1970
2008
2056
2077
2059
2003
1965
1939
1957
1993
2032
2059
2039
2010
1985
1979
1988
2031
2075
2102
2087
2044
2002
1975
1968
1990
2023
2062
2069
2032
1975
1943
1946
1973
2020
2064
2079
2073
2061
2038
2035
2064
2082
2104
2131
2142
2110
2037
1981
1965
1979
2029
2047
2019
1984
1934
1904
1918
1948
1995
2027
2023
1989
1949
1907
1873
1899
1941
1990
2029
2039
2010
1965
1930
1934
1952
1983
1990
1964
1890
1792
1674
1586
1552
1552
1611
1674
1742
1810
1911
2047
2218
2399
2549
2629
2627
2559
2480
2341
2198
2070
1975
1931
1905
1858
1791
1731
1692
1677
1687
1714
1735
1742
1745
1759
1796
1856
1927
2000
2043
2038
2006
1957
1927
1943
1983
2031
2065
2061
2015
1969
1936
1958
2003
2066
2114
2143
2128
2096
2033
1993
1995
2043
2108
2162
2194
2192
2163
2140
2128
2134
2172
2217
2235
2221
2193
2174
2161
2176
2203
2234
2256
2249
2224
2200
2198
2237
2290
2350
2387
2385
2358
2323
2300
2295
2330
2385
2434
2448
2437
2411
2385
2377
2379
2405
2433
2433
2397
2354
2323
2304
2303
2311
2320
2308
2263
2195
2128
2064
2023
2029
2077
2116
2112
2070
2015
1971
1955
1971
2005
2045
2067
2038
1994
1947
1921
1936
1974
2010
2030
2033
2014
1981
1968
1970
2000
2047
2079
2075
2044
2002
1958
1936
1961
2002
2043
2061
2034
2000
1965
1938
1953
1997
2039
2089
2098
2067
2017
1985
1991
2029
2068
2093
2083
2035
1981
1937
1911
1933
1977
2002
1993
1967
1929
1895
1875
1904
1942
1991
2023
2014
1968
1906
1872
1877
1915
1958
1999
2013
1989
1936
1895
1874
1879
1891
1877
1817
1719
1595
1470
1407
1414
1484
1607
1747
1885
2019
2147
2288
2437
2583
2671
2687
2623
2462
2267
2074
1923
1861
1857
1875
1883
1844
1774
1694
1644
1629
1664
1733
1793
1826
1842
1857
1883
1917
1958
2000
2034
2044
2015
1969
1927
1922
1941
1980
2015
2021
2002
1966
1925
1937
1963
2007
2062
2083
2068
2032
2006
1983
1986
2017
2070
2111
2122
2096
2061
2019
2005
2038
2095
2131
2149
2128
2102
2075
2085
2111
2150
2197
2226
2230
2209
2189
2191
2218
2262
2321
2369
2382
2352
2303
2266
2256
2277
2320
2348
2354
2357
2333
2294
2266
2256
2277
2304
2315
2299
2256
2201
2160
2147
2150
2170
2176
2155
2099
2033
1983
1968
1985
2011
2037
2039
2019
1973
1920
1886
1879
1894
1915
1929
1922
1898
1857
1826
1829
1863
1915
1957
1968
1942
1899
1852
1841
1872
1930
1967
1979
1966
1931
1899
1888
1908
1941
1962
1973
1975
1952
1924
1911
1921
1962
2011
2041
2063
2018
1968
1926
1911
1934
1968
1999
2000
1983
1953
1922
1905
1907
1920
1946
1972
1968
1927
1878
1852
1849
1871
1903
1936
1947
1935
1904
1871
1870
1883
1907
1947
1959
1937
1905
1853
1796
1765
1739
1709
1647
1535
1455
1391
1392
1481
1659
1857
2066
2273
2446
2582
2688
2767
2805
2800
2745
2624
2451
2261
2108
2007
1968
1964
1966
1942
1893
1825
1766
1737
1756
1803
1865
1924
1955
1950
1922
1901
1891
1917
1946
1984
2006
1988
1955
1909
1885
1889
1923
1967
2011
2038
2023
1989
1967
1969
1994
2029
2073
2079
2052
2003
1977
1982
2001
2045
2093
2116
2110
2085
2047
2027
2038
2082
2128
2146
2144
2128
2108
2100
2126
2161
2215
2272
2286
2255
2222
2197
2214
2257
2309
2365
2399
2405
2365
2333
2302
2305
2339
2383
2411
2401
2368
2325
2286
2268
2287
2325
2355
2337
2288
2226
2170
2128
2113
2123
2139
2139
2111
2039
1951
1926
1938
1985
2027
2055
2042
1999
1938
1902
1891
1922
1968
1995
2000
1983
1939
1907
1895
1911
1950
1983
2000
1974
1936
1887
1869
1882
1921
1968
1997
1995
1963
1925
1915
1921
1958
2009
2029
2032
2029
2000
1965
1929
1927
1954
2000
2043
2030
1985
1936
1902
1910
1956
1995
2027
2036
2007
1962
1922
1902
1919
1955
1978
1980
1937
1891
1862
1858
1882
1911
1951
1977
1967
1925
1884
1862
1875
1921
1967
1982
1963
1904
1825
1742
1683
1642
1600
1553
1491
1443
1425
1469
1590
1779
2017
2288
2527
2719
2857
2927
2946
2930
2870
2763
2631
2479
2329
2206
2118
2064
2019
1986
1936
1893
1823
1772
1744
1753
1798
1869
1927
1959
1962
1927
1887
1870
1875
1895
1940
1984
1995
1970
1924
1889
1874
1902
1948
1984
1999
1982
1938
1909
1909
1947
2000
2059
2085
2075
2043
2013
2014
2032
2075
2127
2139
2128
2092
2047
2030
2042
2083
2137
2185
2208
2193
2167
2142
2139
2173
2222
2259
2297
2304
2303
2287
2279
2292
2338
2386
2426
2423
2384
2353
2339
2343
2366
2401
2434
2446
2422
2375
2330
2305
2303
2329
2338
2311
2265
2223
2186
2151
2143
2162
2178
2175
2148
2096
2035
1994
1983
2006
2037
2054
2029
1986
1937
1894
1882
1900
1941
1995
2006
1982
1930
1887
1872
1886
1915
1951
1966
1951
1922
1898
1872
1861
1882
1927
1979
1995
1975
1936
1906
1903
1923
1967
2000
2006
1984
1945
1899
1883
1903
1967
2015
2036
2031
1994
1979
1942
1968
1991
2026
2039
2047
2026
1986
1934
1913
1920
1946
1970
1975
1946
1901
1843
1809
1824
1861
1890
1920
1934
1925
1894
1872
1869
1882
1923
1941
1945
1927
1891
1837
1776
1712
1651
1600
1533
1439
1362
1363
1431
1582
1788
2043
2311
2545
2739
2870
2922
2928
2894
2814
2663
2479
2288
2119
2000
1941
1921
1919
1897
1856
1793
1741
1701
1680
1710
1776
1856
1930
1961
1950
1919
1890
1897
1935
1989
2021
2023
1987
1954
1925
1929
1952
1981
2011
2033
2022
1986
1948
1939
1936
1974
2035
2083
2098
2078
2046
2011
2005
2032
2083
2109
2115
2119
2102
2086
2087
2119
2166
2214
2240
2230
2193
2160
2147
2175
2225
2279
2319
2322
2319
2300
2301
2323
2381
2429
2466
2471
2441
2398
2363
2361
2375
2403
2432
2441
2429
2410
2375
2352
2351
2362
2381
2385
2375
2326
2263
2206
2175
2171
2176
2175
2155
2116
2069
2021
1994
2006
2043
2077
2082
2063
2001
1955
1920
1920
1943
1989
2023
2025
1995
1950
1910
1903
1922
1959
1993
2005
1997
1953
1930
1905
1904
1929
1963
1973
1973
1967
1945
1923
1935
1975
2016
2039
2038
2018
1984
1942
1942
1971
2019
2058
2064
2039
2000
1979
1973
1995
2032
2064
2072
2059
2006
1956
1933
1936
1968
1987
2000
1991
1959
1921
1897
1894
1909
1941
1969
1977
1961
1920
1887
1866
1879
1939
2007
2041
2021
1955
1893
1851
1844
1837
1787
1718
1619
1514
1422
1374
1394
1489
1653
1840
2029
2206
2349
2482
2606
2659
2663
2605
2466
2271
2064
1861
1743
1710
1727
1766
1782
1758
1680
1612
1568
1586
1647
1763
1869
1933
1937
1931
1933
1947
2000
2063
2115
2128
2112
2083
2058
2033
2042
2071
2103
2128
2135
2113
2070
2039
2043
2077
2125
2162
2173
2170
2151
2119
2097
2113
2159
2203
2226
2221
2185
2145
2123
2133
2179
2240
2278
2282
2257
2221
2178
2195
2254
2323
2374
2399
2383
2352
2327
2330
2368
2417
2467
2499
2487
2448
2401
2393
2417
2469
2523
2544
2533
2494
2444
2399
2377
2385
2411
2434
2418
2368
2305
2241
2209
2226
2251
2258
2238
2192
2130
2065
2017
2005
2031
2079
2110
2109
2071
2001
1961
1943
1965
2014
2058
2064
2042
1995
1946
1935
1953
1991
2032
2071
2061
2018
1981
1955
1961
1982
2015
2032
2029
1993
1947
1927
1933
1971
2015
2047
2059
2032
1995
1970
1968
1987
2031
2079
2096
2080
2025
1978
1971
1989
2023
2055
2068
2058
2000
1947
1908
1902
1919
1949
1974
1984
1963
1927
1898
1873
1895
1941
1982
1996
1974
1930
1888
1869
1881
1923
1969
1989
1970
1921
1867
1837
1821
1828
1843
1837
1775
1662
1530
1441
1414
1488
1616
1790
1968
2121
2237
2323
2416
2483
2521
2532
2469
2304
2093
1884
1742
1680
1679
1709
1727
1711
1655
1586
1535
1535
1586
1664
1766
1841
1873
1885
1879
1892
1937
2000
2033
2065
2057
2019
1968
1923
1911
1946
2003
2062
2075
2039
2000
1963
1957
1987
2039
2082
2096
2083
2064
2029
2019
2032
2066
2094
2113
2113
2096
2087
2063
2057
2086
2133
2162
2167
2147
2127
2126
2129
2158
2206
2256
2285
2271
2241
2223
2211
2238
2294
2347
2371
2368
2361
2342
2327
2343
2367
2411
2448
2448
2430
2401
2337
2290
2288
2317
2337
2339
2307
2250
2192
2162
2141
2133
2144
2147
2117
2073
2009
1979
1968
1973
2000
2021
2027
2001
1954
1907
1893
1909
1948
1990
1999
1981
1930
1872
1840
1855
1919
1974
2000
1995
1975
1926
1900
1888
1906
1951
1993
2005
1999
1969
1937
1934
1951
1971
2001
2035
2032
2003
1959
1933
1946
1971
2014
2042
2039
2015
1983
1957
1955
1975
2009
2031
2020
1990
1952
1931
1926
1920
1923
1950
1959
1963
1930
1882
1869
1871
1897
1932
1941
1930
1905
1865
1842
1853
1899
1937
1954
1949
1907
1857
1791
1747
1728
1719
1698
1653
1589
1527
1502
1525
1618
1767
1941
2123
2261
2359
2416
2433
2445
2448
2411
2311
2172
2000
1855
1757
1728
1746
1770
1778
1765
1728
1674
1631
1617
1664
1750
1840
1905
1934
1927
1905
1893
1890
1917
1968
2003
2007
1994
1969
1936
1923
1929
1963
2015
2055
2046
2017
1988
1978
1993
2032
2089
2114
2097
2064
2022
2012
2027
2037
2077
2107
2118
2102
2074
2047
2057
2094
2140
2179
2205
2218
2202
2175
2156
2160
2193
2256
2306
2327
2310
2281
2257
2267
2295
2352
2385
2402
2397
2359
2326
2313
2335
2384
2428
2427
2397
2342
2288
2265
2267
2289
2320
2352
2343
2288
2225
2167
2143
2147
2160
2161
2151
2105
2035
1992
1971
1971
1998
2031
2056
2032
1999
1962
1937
1936
1972
2000
2017
2003
1971
1925
1891
1890
1919
1968
1998
1999
1984
1953
1934
1923
1952
1991
2031
2044
2029
2005
1968
1949
1960
1983
2027
2069
2064
2030
1974
1948
1934
1949
1989
2039
2064
2047
2019
1984
1968
1987
2013
2033
2032
2000
1951
1895
1865
1871
1907
1947
1976
1969
1943
1899
1867
1870
1904
1942
1987
2001
1984
1944
1910
1898
1887
1898
1933
1951
1920
1867
1781
1701
1625
1566
1520
1507
1516
1535
1609
1700
1841
2035
2259
2455
2599
2655
2639
2577
2480
2368
2256
2135
2032
1935
1849
1776
1718
1683
1692
1711
1730
1739
1739
1735
1758
1808
1867
1915
1959
1995
2000
1979
1951
1936
1939
1969
2009
2054
2046
2014
1974
1942
1958
1996
2041
2079
2073
2037
2003
1969
1984
2029
2076
2106
2119
2113
2095
2057
2034
2067
2108
2138
2163
2161
2126
2079
2059
2069
2112
2165
2203
2205
2191
2164
2162
2175
2199
2245
2301
2319
2306
2274
2258
2269
2303
2349
2379
2397
2399
2372
2335
2313
2326
2359
2405
2426
2407
2369
2314
2256
2229
2240
2269
2287
2269
2224
2163
2102
2075
2081
2099
2114
2107
2065
2001
1950
1907
1916
1951
2007
2041
2032
1981
1927
1895
1887
1903
1934
1965
1970
1945
1899
1867
1869
1901
1949
1989
2001
1991
1967
1937
1935
1959
1978
1995
2011
2007
1981
1943
1925
1932
1955
1990
2032
2060
2034
2000
1961
1935
1941
1986
2027
2042
2026
1981
1927
1895
1901
1926
1962
1980
1957
1919
1882
1861
1862
1895
1948
1989
1993
1955
1907
1857
1843
1857
1904
1936
1949
1923
1886
1851
1839
1840
1857
1872
1863
1798
1705
1572
1447
1381
1378
1442
1535
1633
1742
1872
2037
2243
2455
2673
2800
2863
2838
2715
2534
2370
2238
2129
2077
2057
2013
1946
1867
1776
1733
1732
1770
1808
1808
1802
1802
1808
1826
1854
1903
1941
1970
1967
1919
1872
1857
1881
1930
1984
2011
2000
1967
1931
1910
1911
1942
1984
2031
2033
2015
1975
1934
1934
1969
2002
2047
2068
2066
2034
2003
1995
2002
2039
2101
2131
2124
2086
2054
2037
2063
2103
2154
2199
2221
2215
2187
2171
2186
2225
2277
2320
2338
2322
2292
2254
2240
2263
2311
2362
2398
2415
2370
2314
2271
2259
2283
2310
2330
2323
2304
2260
2225
2196
2192
2213
2222
2211
2162
2101
2045
2009
1986
1997
2020
2037
2018
1999
1971
1937
1915
1920
1935
1951
1939
1905
1873
1850
1845
1874
1921
1961
1985
1966
1930
1874
1840
1822
1855
1919
1952
1939
1909
1870
1856
1873
1899
1931
1950
1954
1940
1918
1897
1903
1919
1946
1984
2003
1989
1947
1909
1895
1902
1949
1991
2018
2013
1983
1943
1910
1911
1929
1959
1995
1981
1919
1856
1814
1810
1836
1862
1883
1898
1878
1850
1839
1831
1830
1870
1915
1934
1923
1893
1821
1776
1775
1810
1850
1851
1805
1694
1534
1389
1300
1281
1340
1458
1606
1760
1927
2137
2358
2588
2800
2943
2992
2950
2881
2751
2555
2378
2249
2173
2128
2069
1982
1887
1783
1728
1719
1739
1775
1796
1792
1777
1765
1771
1809
1855
1904
1923
1917
1885
1850
1829
1831
1872
1915
1939
1947
1936
1913
1886
1887
1915
1936
1964
1979
1969
1954
1927
1918
1936
1981
2031
2071
2071
2047
2001
1950
1950
1996
2059
2112
2129
2128
2093
2043
2032
2063
2105
2162
2214
2230
2211
2171
2159
2190
2255
2302
2337
2354
2342
2315
2293
2301
2322
2355
2384
2397
2381
2359
2326
2318
2342
2375
2390
2395
2379
2318
2249
2192
2175
2178
2192
2192
2170
2135
2074
2017
2005
2023
2059
2068
2055
2006
1946
1907
1904
1921
1959
1987
1996
1967
1920
1875
1853
1855
1884
1935
1971
1968
1927
1876
1847
1845
1870
1905
1945
1963
1929
1893
1872
1865
1902
1941
1968
1984
1975
1936
1883
1853
1856
1893
1957
2002
2010
1983
1940
1919
1920
1947
1987
2023
2038
2010
1959
1905
1883
1914
1957
1984
1995
1965
1911
1859
1865
1890
1911
1942
1961
1955
1915
1856
1808
1809
1840
1890
1938
1955
1913
1872
1847
1842
1857
1899
1933
1918
1854
1763
1647
1520
1429
1393
1387
1414
1477
1565
1671
1823
2017
2241
2458
2640
2730
2708
2606
2437
2256
2093
1967
1879
1828
1776
1713
1648
1605
1586
1616
1653
1680
1682
1703
1735
1753
1798
1862
1936
2013
2031
1998
1954
1914
1891
1906
1949
1999
2018
2012
1997
1975
1954
1949
1970
2013
2064
2071
2055
2017
1995
1987
2019
2080
2129
2160
2154
2131
2096
2074
2087
2127
2176
2210
2182
2141
2115
2119
2133
2166
2224
2285
2313
2289
2240
2212
2210
2243
2293
2338
2367
2371
2352
2314
2310
2335
2383
2417
2437
2425
2399
2368
2350
2352
2384
2419
2448
2444
2416
2359
2307
2285
2287
2291
2298
2273
2223
2159
2097
2046
2043
2073
2101
2090
2043
1968
1915
1911
1949
2000
2047
2080
2079
2035
1979
1935
1909
1925
1963
1985
1994
1981
1936
1891
1878
1905
1968
2000
2011
1983
1947
1895
1871
1871
1904
1958
2003
2022
2001
1978
1951
1936
1943
1971
1991
2001
1996
1983
1963
1943
1958
1995
2017
2026
2011
1983
1950
1925
1934
1958
1985
2011
2015
1987
1936
1881
1861
1883
1913
1941
1967
1954
1904
1872
1865
1887
1927
1968
1977
1947
1906
1866
1847
1861
1891
1931
1953
1942
1905
1838
1778
1745
1715
1682
1619
1567
1519
1490
1502
1583
1726
1911
2115
2288
2431
2514
2527
2487
2436
2354
2238
2094
1935
1805
1712
1666
1649
1658
1673
1681
1677
1653
1616
1600
1622
1697
1791
1883
1949
1969
1964
1934
1919
1930
1975
2043
2083
2069
2027
1982
1940
1936
1966
2013
2057
2064
2061
2033
2013
2001
2005
2043
2090
2109
2097
2075
2068
2066
2071
2097
2133
2176
2189
2175
2127
2086
2079
2099
2139
2190
2225
2224
2210
2194
2198
2224
2271
2314
2346
2337
2295
2251
2243
2288
2345
2401
2445
2449
2425
2388
2361
2353
2370
2403
2437
2437
2410
2354
2307
2285
2288
2320
2346
2329
2287
2233
2167
2133
2118
2116
2125
2123
2115
2064
2000
1959
1952
1981
2027
2070
2061
2010
1963
1917
1885
1902
1939
2003
2033
2021
1977
1934
1906
1915
1941
1984
2009
2007
1970
1921
1901
1899
1917
1959
1987
2000
1987
1968
1936
1917
1922
1959
1982
1985
1979
1968
1946
1931
1942
1984
2039
2096
2099
2064
2022
1991
1977
1979
2011
2034
2032
2002
1959
1911
1910
1920
1955
1985
2000
1978
1932
1887
1859
1857
1883
1933
1963
1962
1936
1901
1851
1839
1866
1919
1968
1981
1958
1926
1882
1841
1808
1794
1777
1721
1646
1555
1488
1472
1511
1655
1825
1999
2151
2271
2379
2451
2487
2498
2500
2438
2320
2130
1936
1794
1734
1742
1773
1781
1775
1722
1654
1613
1616
1665
1734
1823
1909
1947
1946
1923
1907
1920
1957
1995
2026
2045
2022
1984
1959
1953
1968
2000
2033
2055
2044
2011
1977
1965
1980
2026
2070
2087
2090
2069
2033
2011
2011
2036
2087
2127
2145
2127
2098
2074
2065
2086
2127
2179
2214
2207
2164
2125
2106
2123
2161
2222
2263
2286
2288
2262
2249
2251
2282
2338
2389
2411
2400
2362
2336
2330
2347
2383
2419
2437
2439
2415
2371
2340
2314
2315
2323
2334
2321
2288
2236
2178
2151
2137
2150
2159
2153
2108
2042
1979
1959
1979
2011
2041
2064
2032
1986
1938
1904
1904
1931
1973
2007
2007
1981
1958
1926
1927
1951
1987
2015
2018
1989
1947
1917
1907
1933
1949
1969
1995
1983
1950
1911
1904
1935
1974
2011
2032
2031
1997
1952
1924
1923
1953
2000
2046
2064
2029
1985
1955
1943
1968
2001
2042
2061
2061
2013
1955
1917
1910
1935
1971
1995
1989
1968
1925
1886
1880
1906
1949
1983
1986
1959
1910
1861
1856
1872
1907
1958
1981
1968
1942
1892
1867
1872
1893
1913
1903
1842
1740
1616
1509
1456
1450
1485
1584
1679
1774
1860
1989
2155
2324
2497
2639
2694
2667
2554
2393
2196
2017
1904
1858
1841
1835
1799
1734
1665
1627
1629
1673
1722
1773
1797
1798
1808
1837
1887
1947
1999
2023
2000
1949
1905
1894
1917
1963
2000
2031
2035
2011
1966
1926
1921
1949
1993
2039
2064
2044
2026
2000
1997
2003
2031
2064
2064
2073
2064
2037
2019
2029
2071
2126
2174
2197
2172
2126
2091
2084
2108
2158
2215
2249
2238
2210
2178
2171
2191
2237
2295
2331
2333
2326
2292
2279
2288
2321
2373
2411
2414
2370
2313
2278
2271
2288
2320
2346
2338
2310
2260
2224
2193
2192
2209
2224
2220
2182
2114
2046
1981
1963
1984
2011
2038
2044
2025
1965
1923
1913
1935
1966
1984
1973
1936
1890
1856
1840
1856
1891
1933
1953
1938
1907
1867
1849
1846
1887
1942
1973
1970
1936
1872
1829
1823
1853
1904
1950
1969
1961
1921
1889
1876
1903
1948
1993
2014
1997
1953
1914
1894
1902
1923
1952
1984
1999
1989
1950
1936
1930
1940
1983
2023
2026
1986
1938
1887
1859
1873
1921
1966
2002
1999
1957
1873
1824
1811
1847
1895
1931
1946
1927
1899
1870
1871
1889
1925
1964
1973
1948
1910
1886
1862
1861
1877
1875
1827
1729
1600
1479
1405
1383
1436
1535
1689
1855
2004
2176
2352
2538
2735
2911
3019
3021
2902
2711
2503
2329
2225
2179
2155
2123
2058
1958
1853
1776
1757
1767
1815
1861
1872
1851
1830
1814
1820
1858
1906
1953
1963
1936
1895
1853
1841
1859
1899
1936
1950
1947
1920
1885
1867
1879
1931
1985
2023
2023
2001
1978
1968
1974
1995
2030
2074
2095
2094
2064
2015
1996
2003
2047
2103
2141
2146
2118
2067
2053
2071
2119
2186
2240
2256
2238
2215
2191
2170
2203
2251
2303
2330
2330
2320
2318
2320
2352
2389
2433
2454
2438
2399
2345
2308
2293
2321
2368
2403
2391
2338
2269
2219
2192
2192
2213
2206
2192
2144
2097
2046
2012
2010
2031
2060
2079
2055
2000
1945
1905
1899
1913
1950
1978
1973
1937
1898
1868
1856
1872
1905
1936
1943
1931
1899
1859
1847
1866
1903
1936
1942
1922
1888
1851
1825
1818
1840
1874
1907
1914
1887
1846
1801
1798
1831
1878
1921
1935
1927
1889
1856
1845
1863
1901
1942
1965
1938
1904
1863
1843
1855
1898
1974
2043
2068
2037
1975
1919
1920
1947
1979
2005
2003
1981
1938
1907
1886
1875
1902
1939
1959
1938
1901
1854
1830
1840
1871
1917
1936
1933
1908
1866
1835
1829
1853
1886
1919
1917
1895
1863
1826
1783
1747
1712
1677
1632
1567
1479
1414
1424
1523
1686
1870
2096
2314
2512
2681
2832
2945
3023
3050
3001
2855
2640
2413
2211
2090
2027
2011
2000
1951
1874
1775
1690
1635
1648
1697
1766
1829
1871
1887
1862
1842
1839
1861
1893
1921
1955
1963
1920
1881
1857
1857
1889
1947
1970
1959
1920
1869
1844
1851
1893
1949
1989
1998
1981
1941
1911
1907
1936
1995
2047
2080
2064
2031
1997
1993
2015
2061
2106
2131
2135
2114
2066
2042
2064
2119
2183
2244
2270
2246
2220
2193
2193
2235
2304
2368
2387
2383
2362
2331
2323
2342
2375
2415
2440
2436
2399
2350
2313
2302
2323
2348
2355
2339
2289
2229
2173
2141
2138
2166
2191
2191
2155
2097
2035
1997
1986
2000
2019
2031
2003
1962
1919
1887
1895
1917
1950
1974
1968
1930
1891
1856
1855
1859
1879
1915
1923
1911
1887
1840
1812
1823
1849
1887
1917
1913
1867
1819
1790
1798
1825
1858
1898
1910
1904
1873
1851
1846
1863
1886
1915
1930
1914
1872
1842
1836
1863
1904
1947
1968
1969
1935
1892
1865
1867
1898
1936
1970
1984
1963
1935
1919
1908
1937
1979
1997
1998
1965
1919
1881
1872
1885
1919
1950
1968
1953
1909
1866
1833
1830
1854
1906
1940
1935
1893
1844
1823
1825
1845
1887
1924
1937
1917
1874
1842
1818
1808
1811
1797
1759
1676
1574
1456
1382
1379
1455
1597
1756
1921
2090
2256
2401
2543
2661
2722
2705
2622
2441
2213
1995
1825
1757
1755
1769
1761
1731
1663
1580
1519
1522
1577
1633
1701
1763
1791
1808
1812
1831
1878
1936
1996
2015
1996
1957
1911
1895
1903
1926
1969
2001
2001
1971
1931
1914
1929
1968
2017
2067
2090
2064
2018
1985
1975
1999
2038
2090
2117
2117
2083
2038
2038
2066
2109
2156
2183
2171
2142
2117
2111
2125
2160
2208
2259
2283
2264
2233
2213
2230
2273
2326
2387
2401
2409
2415
2387
2375
2386
2417
2454
2471
2447
2401
2353
2334
2351
2382
2432
2462
2457
2426
2368
2305
2267
2253
2259
2265
2229
2163
2099
2058
2029
2032
2059
2082
2094
2062
1998
1936
1914
1920
1943
1975
2000
2000
1974
1936
1895
1879
1903
1939
1964
1971
1983
1959
1915
1875
1874
1904
1954
1989
1983
1953
1897
1847
1840
1863
1907
1949
1966
1938
1904
1876
1871
1904
1941
1971
1978
1962
1929
1895
1878
1894
1936
1985
2026
2022
1986
1941
1916
1911
1939
1983
2022
2035
2013
1970
1931
1930
1952
1987
2004
2011
1995
1954
1914
1891
1893
1911
1947
1958
1935
1904
1863
1839
1826
1854
1904
1967
1981
1947
1900
1871
1856
1885
1933
1968
1978
1959
1921
1870
1830
1795
1771
1744
1695
1622
1535
1483
1482
1535
1663
1827
1996
2168
2292
2417
2503
2553
2559
2557
2491
2353
2174
1978
1829
1743
1716
1725
1751
1764
1725
1654
1599
1559
1572
1617
1695
1776
1827
1856
1873
1877
1890
1920
1970
2034
2062
2032
1995
1960
1942
1947
1972
2005
2035
2055
2032
1985
1953
1968
2007
2068
2114
2128
2111
2079
2037
2021
2029
2063
2116
2150
2156
2135
2096
2067
2078
2112
2160
2196
2198
2177
2160
2151
2158
2191
2237
2277
2287
2259
2242
2253
2268
2305
2358
2415
2443
2427
2389
2360
2346
2350
2384
2448
2467
2465
2429
2370
2327
2315
2323
2353
2378
2372
2342
2288
2226
2189
2181
2199
2206
2195
2154
2070
2013
1983
1982
2005
2039
2057
2032
2000
1957
1929
1923
1941
1989
2011
2007
1975
1936
1890
1872
1874
1907
1951
1974
1965
1935
1901
1883
1895
1931
1975
2000
1990
1939
1886
1847
1847
1881
1923
1955
1963
1942
1904
1869
1879
1911
1957
2001
2022
2015
1991
1952
1922
1922
1942
1973
2001
1994
1959
1921
1898
1904
1951
2014
2064
2074
2034
1986
1939
1922
1938
1971
2001
2011
1982
1927
1873
1852
1865
1895
1923
1945
1939
1909
1887
1870
1867
1891
1935
1978
1991
1966
1914
1875
1863
1885
1918
1947
1961
1937
1869
1781
1707
1655
1616
1605
1601
1592
1600
1616
1676
1792
1973
2180
2370
2518
2602
2608
2546
2471
2382
2262
2147
2019
1913
1814
1744
1728
1726
1727
1715
1698
1673
1638
1615
1623
1673
1747
1847
1917
1978
1981
1956
1927
1909
1916
1947
1993
2014
2011
1989
1951
1917
1904
1921
1973
2035
2052
2026
1985
1963
1963
2003
2057
2091
2096
2071
2026
1987
1988
2030
2083
2129
2165
2163
2127
2081
2055
2069
2110
2162
2202
2205
2178
2144
2128
2151
2203
2259
2307
2311
2288
2267
2259
2275
2315
2363
2419
2449
2433
2391
2347
2320
2323
2368
2415
2437
2427
2394
2349
2318
2304
2320
2350
2359
2345
2307
2239
2175
2128
2119
2112
2127
2119
2097
2054
1994
1949
1939
1968
2001
2033
2029
1990
1926
1876
1865
1901
1946
1985
1994
1974
1933
1891
1877
1905
1938
1971
1983
1962
1917
1863
1849
1870
1909
1951
1978
1964
1922
1883
1854
1846
1883
1919
1946
1953
1927
1887
1869
1872
1902
1947
1998
2025
2007
1953
1898
1885
1904
1948
1991
2000
1989
1955
1925
1915
1919
1955
1991
2027
2032
2004
1958
1921
1907
1931
1966
1989
1985
1961
1895
1849
1807
1804
1847
1901
1927
1930
1904
1858
1831
1840
1878
1927
1960
1966
1931
1885
1855
1850
1869
1907
1921
1890
1814
1711
1593
1494
1446
1452
1509
1593
1684
1786
1904
2060
2245
2466
2655
2773
2815
2781
2679
2512
2329
2180
2070
1997
1949
1899
1823
1734
1669
1643
1655
1689
1712
1730
1732
1727
1742
1772
1842
1907
1957
1971
1957
1913
1879
1878
1894
1922
1961
1984
1970
1922
1877
1870
1897
1935
1971
2000
2003
1973
1947
1930
1930
1955
1984
2019
2039
2026
1998
1970
1967
1985
2021
2064
2082
2082
2081
2055
2026
2032
2079
2141
2186
2196
2176
2131
2112
2128
2167
2227
2279
2307
2304
2274
2255
2262
2302
2347
2384
2399
2393
2351
2301
2263
2289
2341
2386
2405
2389
2352
2290
2235
2206
2215
2231
2242
2234
2189
2130
2075
2030
2021
2032
2045
2037
2009
1967
1909
1875
1878
1912
1953
1975
1978
1939
1894
1861
1845
1856
1887
1921
1937
1904
1858
1826
1819
1851
1904
1940
1952
1929
1891
1845
1822
1823
1859
1906
1936
1932
1904
1858
1818
1808
1826
1860
1903
1926
1914
1879
1854
1846
1872
1910
1952
1987
1980
1939
1883
1857
1865
1910
1979
2009
1993
1965
1927
1903
1906
1937
1969
2006
2019
2002
1974
1933
1911
1927
1968
2006
2031
2000
1943
1887
1837
1835
1872
1923
1950
1947
1921
1887
1859
1856
1875
1920
1965
1969
1936
1888
1850
1840
1869
1909
1938
1936
1896
1791
1657
1552
1488
1466
1477
1521
1591
1677
1792
1926
2118
2375
2641
2887
3056
3117
3066
2971
2837
2688
2541
2413
2309
2219
2128
2018
1930
1865
1817
1807
1808
1805
1776
1744
1733
1755
1801
1854
1902
1926
1907
1868
1837
1827
1851
1893
1936
1954
1941
1903
1858
1840
1853
1897
1967
1997
1991
1965
1924
1900
1895
1921
1964
2010
2033
2029
1990
1963
1950
1971
2018
2079
2094
2106
2081
2042
2027
2043
2108
2177
2215
2220
2186
2147
2119
2131
2175
2224
2260
2288
2297
2297
2298
2301
2331
2383
2443
2471
2467
2432
2381
2359
2373
2411
2449
2475
2458
2416
2363
2309
2270
2273
2304
2334
2327
2281
2205
2128
2091
2095
2106
2128
2099
2058
1996
1951
1927
1936
1969
1997
2017
2012
1980
1936
1877
1871
1875
1917
1938
1938
1899
1847
1797
1778
1808
1862
1910
1941
1945
1913
1882
1855
1851
1858
1878
1907
1907
1861
1798
1775
1776
1810
1870
1911
1936
1936
1878
1837
1810
1813
1856
1897
1919
1904
1863
1812
1787
1798
1839
1897
1938
1943
1910
1859
1827
1819
1853
1903
1954
1975
1978
1953
1920
1921
1943
1983
2007
2015
1989
1936
1901
1882
1887
1930
1990
2032
2029
1984
1935
1898
1882
1893
1913
1942
1953
1918
1855
1815
1818
1856
1906
1951
1984
1968
1925
1873
1844
1845
1881
1933
1969
1952
1875
1779
1680
1601
1558
1526
1517
1519
1562
1626
1712
1875
2113
2379
2657
2889
3049
3100
3051
2934
2789
2624
2439
2268
2127
2000
1902
1838
1792
1767
1746
1746
1750
1727
1707
1694
1711
1751
1820
1897
1966
1971
1935
1891
1853
1859
1898
1943
1972
1975
1951
1919
1892
1891
1932
1980
2022
2047
2037
2003
1967
1955
1971
2012
2039
2064
2067
2034
2000
1991
2005
2032
2077
2118
2129
2118
2082
2057
2055
2096
2147
2200
2223
2210
2180
2160
2158
2182
2237
2291
2326
2334
2320
2300
2304
2335
2384
2434
2462
2476
2463
2432
2410
2422
2463
2487
2506
2497
2453
2387
2335
2323
2346
2380
2416
2418
2387
2329
2256
2191
2166
2167
2198
2221
2205
2158
2082
2023
1996
2004
2027
2037
2023
1990
1957
1920
1904
1919
1967
2007
2039
2025
1967
1911
1873
1870
1886
1935
1967
1975
1958
1936
1898
1878
1890
1924
1957
1968
1938
1895
1852
1835
1848
1885
1936
1965
1952
1921
1879
1863
1872
1891
1917
1933
1941
1922
1889
1862
1858
1902
1935
1968
1979
1954
1917
1883
1867
1878
1917
1958
1990
1984
1965
1923
1900
1908
1943
2000
2039
2046
2015
1978
1937
1919
1936
1984
2041
2036
1991
1934
1883
1859
1889
1943
1982
1986
1964
1920
1875
1846
1859
1895
1936
1960
1953
1932
1897
1857
1856
1885
1920
1952
1968
1943
1872
1792
1719
1680
1670
1669
1642
1587
1552
1561
1612
1732
1902
2097
2302
2469
2603
2672
2689
2647
2559
2444
2289
2116
1946
1818
1733
1685
1681
1699
1715
1702
1647
1602
1568
1559
1597
1680
1792
1895
1937
1937
1936
1924
1903
1910
1967
2009
2023
2006
1972
1941
1933
1943
1981
2032
2059
2045
2023
1997
1978
1984
2013
2064
2098
2110
2097
2081
2058
2058
2073
2103
2127
2141
2125
2099
2080
2067
2098
2128
2177
2199
2197
2191
2158
2135
2167
2215
2266
2313
2337
2325
2308
2311
2323
2356
2394
2439
2459
2438
2414
2386
2398
2414
2448
2497
2518
2508
2466
2418
2392
2383
2411
2451
2451
2410
2346
2271
2210
2181
2172
2191
2203
2196
2153
2081
2009
1973
1959
1981
2025
2038
2019
1968
1910
1887
1891
1919
1956
1986
1994
1972
1911
1861
1862
1891
1936
1970
1984
1962
1911
1871
1855
1872
1916
1949
1977
1968
1922
1867
1843
1861
1883
1916
1942
1951
1933
1879
1840
1836
1856
1905
1950
1967
1943
1905
1869
1845
1856
1902
1954
1984
1974
1941
1906
1889
1885
1914
1958
1982
1974
1957
1920
1879
1870
1897
1951
2016
2030
2000
1961
1906
1875
1878
1920
1967
1974
1946
1895
1841
1807
1819
1856
1899
1919
1918
1892
1853
1825
1826
1856
1914
1958
1961
1922
1879
1840
1814
1831
1863
1885
1855
1780
1680
1562
1464
1438
1492
1595
1696
1807
1902
2014
2139
2277
2423
2551
2631
2631
2537
2404
2237
2059
1914
1838
1798
1789
1744
1680
1595
1526
1515
1535
1597
1633
1667
1694
1707
1734
1773
1824
1891
1949
1979
1969
1938
1900
1879
1891
1933
1971
1990
1993
1974
1926
1898
1904
1937
1998
2047
2075
2053
2010
1968
1967
1987
2032
2086
2103
2099
2055
2001
1970
1975
2013
2075
2117
2113
2096
2061
2038
2067
2114
2177
2234
2250
2227
2192
2158
2147
2176
2244
2315
2355
2363
2351
2324
2318
2350
2394
2431
2454
2453
2423
2390
2367
2364
2383
2415
2429
2425
2383
2335
2280
2240
2240
2251
2270
2261
2210
2135
2067
2017
2007
2013
2033
2047
2019
1969
1927
1899
1890
1909
1949
1984
1990
1937
1886
1864
1867
1885
1919
1951
1967
1954
1911
1861
1848
1861
1888
1920
1936
1924
1891
1857
1831
1841
1866
1903
1938
1947
1924
1889
1859
1860
1875
1915
1941
1951
1936
1901
1856
1830
1841
1884
1936
1967
1960
1937
1906
1872
1867
1906
1954
1991
1997
1982
1949
1921
1919
1937
1975
2013
2018
2000
1953
1904
1863
1863
1901
1953
1981
1967
1930
1879
1843
1843
1875
1922
1954
1954
1926
1874
1838
1830
1850
1883
1911
1919
1901
1854
1819
1808
1831
1886
1933
1946
1908
1826
1728
1625
1553
1520
1501
1505
1535
1600
1680
1786
1953
2166
2387
2586
2727
2768
2723
2619
2477
2323
2189
2070
1979
1902
1832
1766
1706
1663
1665
1666
1673
1681
1680
1662
1663
1698
1773
1842
1919
1966
1950
1910
1857
1841
1869
1906
1948
1975
1980
1955
1918
1885
1878
1901
1936
1983
2000
1995
1970
1955
1943
1969
2003
2035
2044
2032
2000
1969
1957
1985
2031
2083
2112
2110
2085
2045
2019
2035
2091
2135
2160
2163
2160
2127
2103
2111
2144
2210
2255
2277
2265
2253
2234
2235
2271
2334
2385
2416
2411
2384
2342
2311
2313
2325
2351
2367
2369
2347
2301
2258
2247
2261
2289
2307
2295
2256
2188
2114
2063
2043
2059
2090
2090
2059
1999
1939
1891
1874
1901
1941
1984
1975
1933
1872
1831
1818
1835
1876
1911
1925
1894
1851
1798
1773
1789
1822
1865
1877
1882
1856
1821
1789
1788
1821
1851
1871
1862
1840
1809
1782
1775
1794
1840
1866
1890
1875
1835
1790
1759
1781
1841
1882
1899
1886
1861
1837
1817
1815
1840
1871
1904
1918
1904
1868
1837
1838
1858
1909
1955
1968
1954
1904
1857
1840
1872
1908
1969
1982
1958
1918
1869
1825
1817
1842
1883
1915
1923
1897
1847
1801
1783
1819
1849
1874
1895
1887
1845
1798
1782
1801
1837
1881
1913
1914
1899
1862
1831
1794
1765
1734
1680
1610
1506
1407
1347
1350
1449
1647
1858
2081
2287
2481
2670
2833
2962
3046
3062
2997
2847
2641
2417
2233
2128
2096
2109
2093
2007
1899
1787
1701
1663
1680
1735
1797
1839
1838
1821
1798
1792
1809
1849
1891
1914
1904
1872
1843
1834
1842
1874
1909
1930
1926
1890
1852
1824
1824
1855
1891
1935
1961
1955
1939
1924
1920
1936
1987
2031
2060
2058
2033
1999
1991
1981
2009
2062
2098
2109
2087
2045
2022
2029
2070
2133
2192
2228
2240
2229
2207
2199
2208
2237
2278
2320
2349
2342
2322
2311
2324
2383
2441
2479
2480
2453
2403
2362
2340
2345
2373
2402
2416
2382
2326
2267
2225
2219
2224
2230
2227
2197
2141
2071
2019
1999
1993
2003
2021
2012
1984
1942
1905
1890
1895
1920
1939
1925
1911
1886
1842
1802
1805
1840
1901
1945
1943
1910
1860
1839
1827
1844
1880
1904
1904
1870
1822
1791
1777
1813
1865
1895
1907
1903
1871
1826
1793
1798
1829
1871
1897
1888
1863
1823
1796
1801
1820
1867
1905
1909
1872
1837
1803
1795
1822
1859
1902
1936
1939
1907
1874
1863
1863
1903
1952
1984
1996
1967
1926
1907
1906
1931
1971
1997
1997
1969
1931
1895
1883
1907
1956
1984
1987
1954
1903
1861
1830
1833
1862
1905
1920
1920
1916
1884
1850
1838
1847
1883
1923
1938
1920
1886
1861
1860
1872
1872
1865
1831
1745
1635
1519
1447
1437
1471
1565
1680
1822
1964
2128
2325
2546
2790
2995
3118
3103
2975
2766
2512
2283
2116
2009
1970
1954
1917
1832
1726
1653
1638
1664
1716
1766
1789
1790
1776
1778
1799
1853
1911
1959
1983
1974
1942
1900
1875
1893
1931
1981
2006
1995
1955
1919
1895
1911
1953
2011
2055
2064
2032
1981
1947
1955
1989
2029
2061
2064
2042
2007
1993
2013
2063
2110
2154
2169
2148
2113
2079
2076
2103
2160
2193
2225
2225
2201
2163
2149
2189
2246
2304
2363
2395
2390
2359
2338
2346
2394
2460
2499
2511
2493
2453
2402
2381
2384
2419
2458
2480
2477
2436
2390
2353
2335
2335
2353
2371
2351
2302
2227
2158
2114
2106
2126
2147
2151
2126
2061
1986
1959
1975
1986
1993
1986
1971
1943
1902
1871
1872
1914
1965
1984
1983
1953
1902
1856
1847
1870
1905
1947
1965
1936
1888
1835
1823
1835
1857
1891
1919
1919
1893
1856
1830
1823
1845
1894
1936
1947
1926
1895
1856
1844
1872
1915
1952
1954
1920
1879
1839
1821
1841
1881
1936
1974
1977
1951
1913
1881
1863
1872
1910
1951
1974
1968
1941
1919
1904
1936
1965
2000
2023
2015
1989
1946
1907
1896
1907
1947
1969
1964
1923
1875
1853
1857
1888
1931
1955
1941
1906
1856
1819
1810
1832
1871
1911
1941
1936
1905
1872
1843
1838
1856
1897
1935
1924
1879
1808
1722
1654
1600
1583
1579
1589
1587
1595
1645
1750
1920
2128
2328
2509
2639
2688
2656
2559
2433
2291
2161
2032
1904
1792
1721
1669
1637
1639
1649
1654
1643
1606
1568
1552
1598
1667
1771
1872
1939
1966
1952
1934
1919
1926
1941
1970
1993
1991
1968
1939
1920
1921
1956
2003
2035
2057
2035
2001
1977
1966
1969
2017
2081
2107
2101
2060
2021
2016
2034
2075
2112
2124
2114
2097
2090
2090
2085
2112
2160
2195
2211
2199
2178
2160
2160
2181
2224
2286
2330
2333
2304
2288
2301
2331
2384
2448
2491
2496
2480
2449
2427
2427
2441
2473
2501
2512
2480
2427
2383
2359
2369
2397
2416
2410
2370
2311
2246
2203
2186
2178
2183
2176
2139
2093
2032
1991
1967
1964
1977
2003
1991
1950
1903
1851
1833
1859
1909
1967
1995
1986
1955
1913
1892
1903
1922
1943
1958
1943
1917
1875
1845
1840
1869
1914
1950
1963
1945
1907
1863
1840
1846
1883
1937
1971
1968
1926
1871
1843
1855
1887
1933
1953
1943
1917
1879
1846
1847
1887
1936
1967
1968
1942
1905
1862
1856
1871
1920
1975
2003
2007
1983
1947
1918
1921
1957
1986
2003
1986
1956
1908
1868
1856
1874
1923
1969
1990
1962
1911
1857
1850
1866
1903
1934
1937
1911
1874
1847
1831
1840
1871
1904
1929
1935
1907
1871
1851
1855
1884
1917
1934
1922
1872
1777
1667
1568
1520
1530
1570
1616
1677
1733
1814
1929
2091
2266
2448
2595
2659
2626
2516
2368
2209
2059
1943
1872
1804
1740
1685
1632
1597
1601
1623
1662
1690
1680
1661
1665
1687
1727
1781
1856
1922
1952
1941
1904
1865
1867
1910
1969
2013
2039
2031
1998
1963
1936
1947
1985
2025
2042
2035
2007
1973
1958
1963
2001
2064
2107
2116
2087
2041
2005
2001
2031
2075
2112
2125
2109
2086
2047
2053
2084
2137
2189
2208
2201
2176
2145
2138
2159
2198
2252
2301
2321
2309
2286
2275
2290
2338
2384
2423
2435
2428
2411
2388
2379
2403
2428
2458
2470
2448
2384
2329
2304
2300
2321
2349
2358
2345
2285
2203
2128
2087
2093
2106
2117
2109
2079
2030
1983
1949
1943
1968
1991
1994
1961
1917
1876
1859
1863
1887
1921
1941
1939
1905
1854
1822
1835
1874
1920
1941
1954
1940
1911
1878
1873
1903
1937
1971
1985
1952
1914
1874
1856
1859
1888
1924
1954
1947
1911
1870
1833
1831
1863
1904
1936
1952
1936
1909
1879
1881
1918
1965
1994
1992
1967
1929
1894
1875
1891
1927
1977
2007
2015
1997
1966
1930
1920
1945
1984
2015
2002
1973
1934
1904
1893
1915
1958
1978
1971
1949
1900
1847
1827
1837
1867
1913
1936
1922
1901
1865
1836
1841
1885
1936
1973
1997
1988
1931
1864
1829
1827
1847
1861
1834
1760
1657
1535
1463
1456
1506
1615
1739
1872
2015
2157
2288
2431
2591
2706
2753
2703
2559
2361
2143
1953
1825
1790
1791
1792
1771
1717
1653
1615
1609
1645
1707
1765
1794
1806
1802
1797
1824
1867
1924
1970
1994
1985
1952
1924
1901
1907
1938
1983
2001
1998
1975
1942
1923
1946
1982
2025
2043
2035
2009
1982
1962
1968
2000
2047
2083
2093
2075
2039
2017
2015
2043
2095
2145
2178
2181
2159
2118
2100
2112
2145
2193
2240
2259
2243
2203
2173
2174
2226
2288
2337
2368
2366
2352
2342
2339
2368
2417
2471
2513
2519
2477
2416
2370
2352
2369
2406
2431
2430
2384
2321
2282
2258
2262
2274
2289
2286
2245
2182
2112
2041
2047
2052
2064
2072
2036
1978
1915
1875
1879
1904
1945
1983
1975
1934
1889
1853
1840
1856
1893
1936
1958
1939
1904
1853
1841
1869
1905
1937
1943
1930
1893
1850
1825
1840
1857
1871
1891
1889
1866
1838
1808
1808
1839
1881
1919
1926
1897
1857
1817
1794
1811
1855
1899
1915
1911
1877
1851
1838
1839
1852
1880
1913
1925
1919
1900
1869
1863
1873
1904
1927
1942
1942
1925
1905
1918
1949
1983
2003
2016
2007
1968
1907
1871
1871
1891
1924
1952
1951
1930
1899
1877
1870
1874
1909
1943
1951
1915
1860
1808
1789
1808
1855
1908
1923
1929
1901
1863
1856
1856
1884
1905
1920
1903
1830
1742
1644
1571
1519
1510
1520
1566
1622
1711
1822
1990
2223
2466
2693
2865
2966
2971
2897
2769
2608
2438
2288
2163
2075
1986
1911
1844
1798
1769
1762
1755
1759
1746
1731
1721
1727
1762
1823
1875
1905
1904
1871
1837
1821
1836
1869
1903
1925
1932
1906
1863
1837
1827
1863
1926
1984
2003
1987
1943
1895
1869
1872
1922
1979
2013
2022
2011
1989
1972
1969
1990
2023
2059
2067
2053
2007
1968
1968
2013
2085
2134
2161
2161
2130
2093
2086
2112
2162
2227
2279
2295
2272
2242
2239
2259
2304
2351
2390
2410
2401
2383
2362
2362
2384
2430
2469
2480
2442
2384
2329
2294
2291
2317
2355
2367
2335
2269
2189
2131
2101
2103
2122
2128
2125
2061
1983
1918
1883
1905
1943
1985
1998
1972
1924
1871
1838
1842
1881
1913
1951
1941
1914
1872
1839
1838
1862
1899
1919
1920
1902
1867
1839
1823
1847
1879
1906
1907
1871
1843
1820
1807
1831
1873
1914
1926
1917
1878
1856
1843
1845
1854
1885
1905
1904
1865
1811
1783
1793
1826
1869
1899
1910
1890
1856
1827
1806
1811
1853
1904
1935
1935
1898
1862
1843
1850
1894
1943
1978
1979
1954
1915
1892
