1697
1700
1740
1808
1869
1889
1878
1887
1890
1925
1999
2070
2115
2128
2105
2054
2003
1983
1999
2027
2065
2081
2066
2026
1984
1961
1991
2047
2112
2141
2131
2098
2054
2017
2017
2046
2112
2160
2149
2128
2108
2096
2084
2103
2145
2187
2214
2192
2124
2079
2075
2101
2161
2228
2262
2256
2202
2155
2122
2128
2167
2223
2269
2302
2287
2246
2204
2194
2226
2286
2346
2371
2353
2287
2243
2251
2293
2366
2443
2482
2486
2466
2439
2430
2438
2482
2559
2647
2683
2671
2640
2614
2605
2614
2672
2743
2779
2768
2735
2683
2659
2671
2704
2739
2763
2752
2699
2624
2551
2533
2539
2556
2557
2534
2474
2398
2323
2281
2278
2288
2297
2286
2231
2143
2047
1974
1964
2003
2065
2103
2095
2033
1954
1881
1853
1868
1906
1935
1933
1907
1872
1840
1828
1847
1902
1936
1943
1922
1884
1849
1835
1837
1879
1931
1953
1947
1929
1888
1866
1867
1901
1943
1987
2002
1989
1945
1883
1858
1889
1939
1994
2032
2030
1989
1941
1902
1911
1953
2016
2055
2032
1993
1939
1887
1879
1920
1997
2063
2095
2064
2002
1941
1923
1941
1984
2033
2054
2023
1968
1904
1872
1898
1943
1987
2022
2031
2011
1978
1937
1936
1963
2023
2075
2081
2047
1985
1930
1895
1919
1984
2034
2043
2032
2003
1951
1933
1943
1981
2026
2062
2043
1995
1942
1901
1897
1937
2002
2064
2081
2059
2005
1954
1925
1931
1951
1989
2018
2029
2006
1966
1931
1925
1965
2021
2081
2091
2041
1994
1955
1953
1987
2032
2071
2079
2035
1998
1950
1937
1967
2029
2095
2126
2114
2065
2010
1985
1981
2012
2072
2125
2133
2096
2019
1967
1958
2005
2079
2129
2161
2149
2109
2077
2064
2095
2133
2166
2191
2187
2138
2085
2067
2079
2109
2147
2147
2122
2064
1994
1958
1954
1985
2029
2089
2106
2063
2008
1973
1970
1998
2031
2101
2140
2128
2077
2015
1986
1989
2015
2045
2061
1998
1905
1806
1712
1667
1683
1744
1827
1927
2007
2105
2233
2428
2687
2944
3190
3346
3367
3274
3107
2900
2704
2542
2412
2303
2205
2101
2000
1922
1877
1873
1899
1905
1918
1909
1894
1883
1883
1911
1998
2087
2139
2130
2091
2031
1996
2007
2047
2097
2131
2131
2125
2080
2035
2034
2078
2130
2165
2161
2129
2095
2055
2042
2073
2127
2176
2207
2218
2174
2119
2096
2112
2135
2173
2214
2215
2191
2145
2119
2124
2161
2221
2251
2258
2234
2191
2151
2129
2160
2208
2256
2281
2274
2242
2192
2175
2188
2229
2297
2347
2348
2306
2269
2241
2240
2283
2351
2399
2423
2426
2395
2370
2368
2395
2456
2534
2598
2621
2603
2559
2537
2549
2608
2657
2693
2680
2643
2599
2559
2588
2645
2703
2738
2743
2704
2641
2591
2557
2551
2559
2608
2608
2555
2485
2404
2351
2319
2315
2325
2331
2299
2213
2112
2058
2025
2025
2055
2068
2047
2007
1943
1887
1862
1870
1899
1939
1950
1920
1872
1833
1805
1815
1846
1893
1933
1937
1904
1856
1807
1805
1840
1904
1949
1945
1918
1858
1808
1793
1837
1885
1925
1943
1929
1885
1829
1793
1813
1873
1936
1968
1981
1953
1895
1856
1853
1878
1917
1968
1999
1984
1938
1887
1869
1900
1949
1991
2011
1990
1931
1869
1831
1843
1902
1979
2032
2029
1981
1937
1909
1903
1947
2007
2044
2055
2018
1955
1907
1882
1903
1953
2023
2038
2010
1968
1908
1889
1903
1949
2014
2054
2041
1998
1937
1889
1894
1942
2000
2054
2066
2016
1949
1904
1891
1921
1973
2033
2071
2047
1999
1939
1917
1932
1983
2039
2064
2041
2000
1954
1911
1920
1957
2016
2078
2098
2071
2000
1938
1911
1937
1991
2059
2087
2070
2033
1971
1934
1957
2004
2063
2097
2096
2053
1995
1956
1947
1986
2062
2112
2122
2098
2055
2015
2006
2047
2115
2151
2146
2112
2043
1990
1978
2001
2067
2143
2201
2222
2192
2127
2075
2064
2103
2146
2189
2206
2173
2111
2038
2023
2047
2109
2161
2176
2138
2055
1968
1934
1959
2018
2091
2130
2126
2085
2026
1969
1938
1956
2007
2068
2083
2058
2010
1966
1943
1970
2025
2073
2077
2018
1904
1749
1641
1602
1637
1728
1833
1936
2053
2171
2324
2544
2830
3110
3346
3483
3451
3285
3071
2853
2641
2466
2342
2255
2174
2087
2000
1936
1894
1887
1919
1953
1967
1953
1902
1856
1855
1897
1982
2045
2077
2053
2000
1957
1935
1943
1985
2055
2095
2085
2039
1983
1945
1953
2000
2065
2110
2111
2062
1997
1959
1936
1973
2035
2102
2121
2109
2064
2003
1984
2000
2053
2112
2131
2112
2070
2014
1975
2000
2064
2135
2187
2176
2122
2076
2047
2056
2094
2155
2213
2239
2205
2149
2087
2064
2095
2141
2201
2253
2263
2235
2175
2128
2137
2192
2256
2323
2367
2369
2330
2287
2278
2320
2379
2447
2485
2480
2438
2390
2384
2432
2503
2559
2618
2619
2559
2518
2489
2496
2543
2597
2624
2631
2602
2540
2485
2448
2458
2505
2544
2539
2469
2374
2275
2213
2197
2213
2230
2215
2163
2091
1978
1900
1879
1899
1935
1954
1936
1887
1807
1731
1716
1734
1772
1812
1825
1777
1712
1649
1616
1642
1703
1776
1821
1827
1770
1689
1642
1639
1674
1725
1751
1747
1723
1680
1645
1637
1675
1724
1776
1799
1767
1718
1671
1666
1685
1729
1793
1833
1809
1754
1725
1712
1718
1757
1809
1841
1837
1806
1755
1702
1687
1719
1776
1835
1859
1835
1776
1716
1696
1728
1791
1851
1875
1859
1821
1771
1719
1715
1769
1831
1865
1840
1785
1729
1697
1699
1738
1789
1836
1849
1829
1783
1727
1702
1729
1776
1829
1867
1847
1787
1714
1691
1711
1755
1818
1858
1861
1839
1792
1767
1766
1792
1826
1856
1867
1841
1803
1759
1726
1745
1781
1831
1869
1884
1846
1797
1759
1743
1761
1809
1857
1870
1843
1794
1746
1746
1791
1841
1882
1895
1863
1809
1747
1728
1758
1805
1856
1887
1866
1825
1781
1765
1777
1809
1850
1901
1923
1907
1875
1840
1818
1823
1872
1915
1939
1921
1879
1842
1835
1865
1927
1989
2017
2003
1953
1907
1877
1895
1930
1977
2006
2018
1984
1929
1891
1881
1897
1923
1943
1948
1914
1856
1809
1804
1832
1878
1923
1958
1961
1913
1861
1823
1815
1840
1889
1938
1937
1895
1850
1814
1811
1839
1872
1899
1893
1815
1711
1600
1525
1520
1578
1682
1813
1947
2077
2213
2379
2615
2894
3155
3335
3399
3307
3091
2832
2583
2369
2197
2084
2000
1920
1856
1801
1766
1776
1809
1855
1893
1887
1853
1794
1760
1792
1862
1936
1988
2000
1983
1927
1889
1871
1904
1947
1983
1993
1962
1915
1878
1873
1900
1929
1984
2000
2015
1984
1935
1922
1923
1950
2000
2046
2058
2026
1995
1947
1925
1959
2026
2090
2125
2117
2081
2034
2015
2020
2064
2115
2156
2147
2112
2051
2005
2007
2065
2135
2205
2235
2198
2139
2098
2084
2112
2166
2226
2273
2263
2224
2185
2179
2207
2257
2324
2362
2366
2347
2305
2287
2307
2354
2432
2487
2514
2496
2466
2443
2463
2507
2559
2627
2666
2665
2627
2559
2556
2582
2631
2688
2703
2672
2614
2550
2503
2494
2503
2545
2583
2559
2524
2433
2343
2285
2275
2277
2271
2238
2181
2114
2035
1983
1958
1963
1991
2005
1987
1939
1866
1821
1819
1840
1872
1890
1888
1851
1802
1744
1724
1763
1826
1883
1906
1876
1821
1772
1747
1777
1838
1895
1921
1912
1877
1828
1795
1801
1838
1882
1906
1915
1886
1839
1793
1797
1841
1907
1946
1953
1929
1881
1834
1811
1836
1863
1920
1952
1942
1904
1851
1818
1817
1846
1926
1994
2008
1970
1917
1863
1846
1883
1938
1995
2018
1994
1941
1904
1872
1883
1923
1968
1991
1983
1952
1905
1873
1890
1943
1996
2032
2032
2000
1938
1888
1870
1879
1921
1962
2005
2013
1971
1927
1915
1936
1970
2011
2058
2058
2015
1963
1911
1911
1957
2003
2047
2063
2032
1983
1946
1937
1966
2010
2063
2074
2042
1999
1954
1921
1931
1985
2044
2070
2059
2016
1969
1938
1920
1961
2029
2087
2096
2064
2010
1977
1961
1977
2026
2095
2128
2119
2096
2045
1999
1978
1997
2038
2089
2102
2093
2069
2057
2063
2105
2163
2201
2207
2164
2112
2064
2032
2059
2103
2140
2155
2155
2119
2079
2034
2046
2066
2112
2150
2155
2115
2053
2003
1994
2007
2063
2094
2102
2079
2038
2007
2000
2003
2062
2122
2157
2141
2096
2046
2007
2000
2006
2013
1984
1923
1835
1731
1669
1667
1754
1899
2067
2231
2384
2543
2717
2896
3110
3295
3406
3360
3179
2903
2607
2311
2115
2014
1984
1986
1968
1920
1841
1765
1737
1785
1869
1955
2018
2038
2019
2001
2015
2067
2132
2173
2177
2157
2114
2073
2061
2075
2121
2169
2209
2214
2171
2119
2078
2064
2094
2143
2169
2169
2157
2116
2082
2081
2116
2181
2237
2249
2224
2180
2128
2102
2118
2176
2240
2286
2289
2251
2207
2176
2176
2204
2241
2289
2305
2273
2209
2166
2153
2194
2287
2351
2375
2358
2317
2269
2245
2251
2288
2351
2387
2379
2354
2327
2316
2337
2386
2447
2495
2517
2506
2465
2439
2448
2493
2553
2630
2669
2657
2635
2593
2579
2618
2683
2747
2777
2786
2764
2723
2691
2690
2732
2773
2818
2816
2759
2678
2608
2545
2523
2544
2598
2597
2532
2454
2376
2311
2287
2291
2315
2310
2261
2192
2119
2061
2032
2039
2062
2064
2038
2001
1968
1921
1884
1889
1936
1981
1982
1955
1904
1856
1840
1845
1871
1917
1941
1940
1913
1871
1847
1854
1892
1944
1971
1984
1963
1918
1889
1883
1923
1977
2011
2000
1975
1934
1899
1890
1909
1952
1998
2032
2030
1987
1939
1920
1941
2011
2079
2112
2111
2065
1995
1947
1935
1968
2023
2061
2081
2074
2032
1989
1963
1983
2032
2096
2124
2109
2084
2043
2011
1986
1996
2061
2112
2123
2109
2064
2029
2002
2031
2096
2167
2196
2176
2146
2111
2096
2109
2140
2199
2261
2270
2245
2199
2169
2162
2192
2237
2267
2270
2240
2188
2143
2134
2156
2192
2237
2256
2236
2192
2135
2112
2112
2139
2186
2235
2263
2227
2152
2103
2103
2155
2215
2243
2253
2222
2160
2112
2107
2148
2215
2275
2315
2299
2242
2182
2134
2129
2165
2210
2245
2254
2221
2154
2100
2081
2097
2141
2179
2211
2198
2160
2128
2119
2137
2176
2214
2230
2197
2139
2078
2043
2063
2118
2178
2223
2234
2205
2134
2085
2070
2079
2097
2096
2062
1984
1891
1819
1794
1840
1936
2096
2274
2437
2591
2735
2883
3047
3214
3322
3315
3184
2953
2678
2403
2192
2065
2026
2047
2066
2032
1963
1885
1842
1851
1888
1933
1979
2002
2005
1995
2000
2047
2112
2162
2189
2171
2128
2068
2023
2021
2060
2115
2167
2183
2162
2117
2073
2057
2081
2125
2160
2181
2170
2113
2067
2054
2069
2113
2173
2210
2207
2173
2124
2090
2079
2099
2154
2202
2219
2195
2150
2097
2066
2084
2140
2199
2244
2239
2199
2155
2130
2138
2176
2223
2249
2255
2226
2171
2151
2146
2178
2247
2315
2350
2339
2299
2247
2224
2238
2277
2320
2370
2406
2398
2375
2371
2384
2429
2483
2544
2559
2537
2491
2469
2480
2519
2589
2635
2651
2624
2579
2541
2527
2544
2559
2613
2631
2590
2512
2429
2359
2325
2343
2383
2401
2346
2273
2192
2128
2097
2096
2101
2096
2075
2017
1951
1874
1821
1808
1835
1883
1899
1866
1811
1756
1707
1705
1747
1807
1836
1830
1787
1726
1686
1674
1694
1737
1775
1803
1791
1735
1682
1670
1699
1739
1776
1807
1806
1761
1715
1693
1686
1715
1774
1834
1849
1822
1765
1721
1705
1724
1777
1855
1895
1890
1839
1776
1747
1761
1811
1867
1898
1876
1841
1783
1741
1745
1789
1847
1898
1901
1866
1819
1783
1772
1789
1835
1891
1919
1903
1847
1808
1790
1815
1857
1893
1919
1904
1857
1798
1766
1777
1818
1875
1918
1906
1877
1843
1811
1818
1854
1905
1968
1987
1953
1883
1802
1756
1759
1789
1839
1898
1910
1890
1843
1813
1808
1841
1891
1946
1968
1937
1893
1870
1853
1871
1905
1936
1953
1933
1878
1833
1808
1823
1867
1919
1956
1968
1930
1872
1853
1877
1936
2003
2047
2034
1991
1930
1861
1847
1877
1939
2000
2015
1977
1920
1874
1842
1849
1879
1924
1952
1941
1920
1872
1847
1839
1872
1911
1949
1957
1929
1871
1838
1823
1870
1934
1968
1948
1897
1808
1727
1681
1671
1679
1695
1718
1735
1747
1799
1910
2066
2269
2512
2756
2931
3046
3063
2992
2870
2736
2582
2407
2231
2061
1911
1820
1774
1773
1778
1781
1789
1776
1735
1711
1708
1744
1815
1904
1974
2000
1977
1935
1894
1882
1909
1958
1989
2021
2032
1998
1953
1925
1925
1975
2037
2077
2063
1999
1936
1894
1882
1930
1995
2047
2064
2043
1990
1955
1953
1988
2045
2089
2099
2075
2019
1969
1950
1966
2015
2068
2090
2083
2059
2028
2026
2042
2095
2138
2181
2178
2142
2096
2061
2064
2099
2162
2211
2238
2218
2182
2150
2131
2141
2178
2235
2288
2302
2279
2255
2242
2271
2319
2382
2434
2452
2432
2387
2363
2362
2407
2487
2555
2592
2590
2559
2503
2478
2512
2590
2655
2672
2627
2559
2497
2443
2416
2447
2494
2518
2496
2459
2366
2285
2239
2243
2261
2273
2251
2180
2092
2000
1945
1934
1940
1966
1975
1955
1894
1824
1792
1780
1782
1809
1857
1875
1849
1801
1755
1739
1776
1842
1894
1903
1872
1812
1750
1706
1714
1776
1847
1898
1905
1872
1812
1770
1764
1799
1858
1890
1885
1858
1815
1780
1779
1808
1866
1911
1921
1902
1849
1779
1764
1787
1839
1903
1952
1951
1918
1871
1846
1861
1895
1946
1974
1961
1915
1871
1857
1866
1897
1930
1960
1970
1941
1887
1837
1818
1851
1899
1963
2002
1999
1963
1903
1842
1811
1850
1909
1960
1971
1940
1904
1854
1839
1860
1904
1938
1958
1935
1885
1842
1831
1851
1892
1919
1933
1925
1899
1856
1819
1825
1873
1941
1995
1997
1958
1894
1837
1821
1851
1907
1970
2007
1984
1927
1877
1856
1878
1947
2023
2053
2034
1997
1937
1901
1904
1934
1965
2003
2020
1999
1959
1929
1929
1965
2009
2064
2082
2064
2008
1969
1957
1977
2022
2064
2093
2081
2035
1981
1936
1936
1959
1989
2033
2060
2023
1965
1904
1877
1905
1956
2005
2042
2039
2000
1938
1895
1892
1937
2000
2032
2022
1983
1922
1903
1905
1936
1970
1986
1946
1847
1725
1615
1577
1597
1666
1778
1899
1998
2103
2226
2413
2646
2879
3083
3211
3221
3102
2896
2673
2448
2250
2115
2026
1953
1885
1808
1760
1739
1746
1777
1822
1855
1856
1834
1812
1819
1846
1927
2006
2059
2034
2000
1959
1925
1921
1954
2010
2032
2015
1968
1916
1891
1883
1910
1966
2023
2062
2047
2001
1952
1918
1903
1941
2017
2071
2079
2043
1999
1963
1963
1991
2041
2090
2091
2059
1993
1951
1943
1986
2053
2114
2157
2141
2096
2047
2017
2025
2077
2129
2167
2160
2126
2082
2058
2054
2091
2153
2199
2204
2176
2149
2115
2118
2150
2212
2285
2323
2313
2272
2242
2239
2269
2320
2381
2421
2423
2407
2371
2351
2347
2410
2496
2551
2559
2534
2482
2448
2442
2471
2513
2554
2559
2529
2464
2394
2346
2348
2371
2400
2410
2353
2288
2191
2110
2065
2065
2073
2064
2031
1972
1879
1808
1773
1771
1799
1832
1839
1786
1708
1633
1601
1610
1640
1670
1707
1713
1687
1646
1604
1600
1629
1673
1717
1730
1693
1631
1594
1583
1609
1678
1727
1741
1719
1657
1597
1564
1580
1637
1703
1744
1735
1690
1634
1601
1599
1627
1674
1716
1730
1709
1649
1600
1586
1616
1661
1707
1714
1707
1669
1633
1617
1628
1662
1698
1735
1738
1707
1663
1626
1617
1643
1687
1744
1766
1725
1647
1583
1572
1614
1664
1712
1727
1697
1654
1605
1583
1600
1647
1698
1735
1726
1692
1637
1605
1626
1669
1725
1761
1755
1718
1664
1602
1569
1583
1630
1666
1667
1626
1556
1499
1469
1488
1535
1610
1643
1633
1583
1520
1488
1495
1534
1618
1676
1691
1662
1613
1577
1584
1611
1663
1712
1730
1713
1662
1600
1589
1614
1667
1731
1783
1787
1745
1685
1638
1620
1654
1715
1774
1781
1773
1737
1698
1682
1712
1777
1840
1873
1863
1808
1759
1754
1776
1816
1866
1891
1891
1865
1823
1787
1777
1825
1889
1947
1968
1932
1886
1842
1820
1847
1904
1969
2018
1999
1958
1904
1861
1872
1919
1972
2006
1986
1934
1866
1808
1797
1829
1894
1950
1968
1942
1879
1825
1801
1829
1894
1959
1983
1950
1891
1840
1815
1838
1893
1949
1993
1993
1936
1842
1774
1726
1707
1699
1680
1667
1648
1623
1657
1761
1943
2179
2442
2695
2887
3010
3083
3091
3071
3053
2975
2819
2612
2373
2142
1981
1915
1917
1950
1983
1969
1900
1807
1761
1763
1835
1925
1994
2035
2031
1978
1930
1898
1914
1968
2037
2095
2102
2047
1968
1904
1904
1950
2028
2091
2114
2093
2009
1930
1909
1955
2033
2110
2128
2111
2064
2005
1969
1983
2047
2125
2160
2150
2103
2043
2002
1996
2032
2101
2151
2174
2148
2093
2046
2043
2093
2160
2225
2259
2240
2176
2107
2075
2099
2160
2227
2288
2294
2256
2192
2147
2149
2197
2278
2325
2352
2330
2283
2245
2243
2281
2354
2435
2487
2489
2447
2414
2406
2427
2477
2549
2608
2610
2559
2512
2482
2501
2559
2643
2705
2735
2705
2638
2559
2539
2547
2610
2669
2689
2640
2551
2449
2369
2356
2397
2451
2462
2420
2335
2228
2137
2096
2087
2115
2150
2142
2085
1993
1917
1879
1904
1958
2009
2030
1993
1914
1829
1787
1795
1839
1897
1937
1925
1893
1840
1808
1805
1841
1912
1972
1978
1931
1854
1786
1754
1802
1873
1947
1987
1978
1923
1846
1800
1818
1876
1949
1989
1996
1966
1882
1827
1822
1865
1931
1994
2010
1967
1904
1833
1804
1835
1892
1965
2006
1979
1922
1867
1822
1831
1887
1963
2013
2032
1983
1921
1869
1862
1905
1973
2015
2007
1978
1917
1856
1842
1864
1941
2002
2031
2005
1955
1893
1856
1873
1933
2007
2064
2062
2000
1920
1857
1847
1900
1983
2041
2023
1968
1908
1860
1843
1875
1948
2021
2064
2029
1954
1871
1840
1865
1922
1989
2046
2062
2011
1935
1886
1879
1927
2008
2086
2098
2057
1977
1920
1895
1910
1958
2027
2073
2064
2010
1950
1911
1911
1966
2037
2089
2097
2047
1973
1915
1897
1936
2006
2064
2067
2044
1986
1942
1940
1967
2000
2064
2093
2079
2026
1968
1915
1916
1968
2034
2096
2094
2047
2000
1957
1953
1989
2058
2108
2122
2094
2033
1982
1951
1983
2037
2085
2113
2112
2069
2011
1979
1991
2030
2089
2128
2123
2071
1995
1933
1925
1979
2047
2111
2126
2096
2033
1978
1962
1987
2046
2112
2133
2111
2071
2019
1977
1971
2016
2087
2136
2146
2096
2023
1979
1971
2002
2062
2106
2141
2130
2093
2037
2015
2043
2112
2161
2179
2160
2114
2064
2032
2044
2096
2176
2237
2246
2212
2157
2109
2103
2140
2183
2219
2240
2211
2138
2067
2032
2035
2075
2135
2160
2137
2096
2046
2018
2022
2062
2112
2150
2151
2121
2059
2000
1991
2019
2080
2130
2149
2128
2077
2012
1980
2003
2074
2116
2102
2006
1895
1782
1694
1674
1719
1819
1947
2079
2206
2334
2491
2704
2945
3184
3376
3443
3356
3159
2913
2673
2491
2352
2266
2211
2150
2093
1995
1918
1886
1894
1926
1957
1963
1939
1897
1887
1907
1968
2042
2107
2134
2111
2045
1973
1941
1954
2007
2064
2103
2102
2041
1982
1958
1977
2029
2098
2155
2171
2134
2074
2022
2016
2054
2099
2144
2163
2128
2064
2000
1975
1999
2070
2155
2216
2224
2175
2099
2044
2046
2102
2167
2227
2248
2217
2159
2102
2081
2113
2183
2247
2283
2258
2201
2131
2095
2123
2194
2274
2322
2327
2288
2211
2145
2145
2222
2308
2383
2405
2368
2293
2242
2254
2303
2384
2471
2523
2522
2462
2403
2365
2377
2462
2559
2638
2651
2619
2554
2491
2479
2544
2627
2687
2691
2641
2545
2462
2427
2441
2496
2554
2559
2519
2447
2362
2297
2267
2293
2327
2329
2269
2162
2045
1954
1916
1931
1984
2028
2029
1986
1905
1814
1790
1823
1877
1909
1909
1873
1808
1741
1712
1733
1799
1873
1906
1901
1856
1765
1712
1715
1763
1823
1868
1876
1843
1779
1743
1753
1801
1855
1905
1935
1903
1829
1759
1719
1743
1808
1885
1933
1926
1878
1807
1765
1770
1824
1881
1923
1919
1867
1798
1753
1754
1802
1881
1959
1973
1921
1865
1808
1783
1797
1861
1936
1977
1974
1931
1853
1799
1798
1840
1924
1995
2007
1955
1872
1805
1785
1830
1904
1959
1985
1949
1886
1823
1806
1836
1904
1968
1990
1965
1909
1846
1810
1823
1872
1932
1955
1958
1931
1891
1859
1863
1891
1941
1994
2005
1967
1903
1833
1799
1823
1885
1966
2016
2003
1967
1907
1849
1840
1885
1925
1955
1959
1923
1860
1825
1840
1888
1936
1971
1994
1971
1914
1854
1821
1841
1903
1973
2015
2005
1952
1887
1858
1871
1915
1980
2025
2015
1967
1904
1856
1851
1889
1953
2007
2047
2025
1966
1903
1877
1890
1920
1972
2029
2041
2001
1950
1918
1919
1936
1968
2000
2010
1981
1929
1906
1904
1936
1997
2059
2068
2031
1958
1895
1865
1879
1933
2000
2035
2046
2023
1985
1957
1961
1993
2035
2074
2085
2057
1986
1931
1918
1936
1993
2061
2093
2091
2030
1973
1947
1961
2032
2108
2146
2139
2094
2031
1984
1978
2012
2064
2097
2111
2081
2027
1979
1954
1958
1981
2017
2037
2020
1983
1949
1933
1940
1982
2037
2064
2041
1995
1936
1891
1887
1930
1984
2031
2042
2011
1956
1889
1835
1808
1807
1783
1745
1693
1650
1643
1699
1838
2031
2256
2482
2683
2828
2921
2974
2990
2960
2906
2802
2618
2375
2139
1951
1855
1840
1874
1926
1939
1895
1804
1723
1673
1675
1744
1842
1926
1967
1951
1922
1911
1953
1992
2037
2079
2093
2061
2007
1965
1951
1974
2020
2083
2109
2092
2032
1967
1936
1969
2029
2092
2118
2112
2074
2011
1965
1951
1974
2030
2081
2102
2082
2023
1987
2009
2059
2105
2157
2181
2176
2121
2047
2000
2006
2067
2128
2171
2160
2139
2114
2095
2086
2105
2140
2190
2230
2210
2162
2110
2081
2113
2184
2251
2288
2274
2224
2177
2174
2209
2279
2345
2389
2411
2381
2350
2335
2352
2407
2481
2550
2586
2559
2544
2511
2496
2533
2589
2626
2640
2605
2535
2480
2469
2496
2555
2621
2641
2624
2559
2503
2445
2407
2413
2422
2421
2387
2322
2239
2160
2099
2095
2102
2113
2115
2070
2000
1930
1873
1861
1883
1914
1932
1907
1840
1751
1683
1666
1712
1787
1842
1855
1805
1755
1711
1691
1715
1789
1851
1874
1836
1767
1703
1664
1670
1725
1802
1856
1865
1835
1779
1734
1728
1757
1804
1836
1853
1817
1759
1718
1719
1759
1835
1904
1920
1876
1808
1741
1711
1741
1787
1869
1920
1925
1902
1831
1761
1739
1786
1861
1922
1943
1910
1847
1791
1763
1781
1838
1906
1937
1921
1885
1827
1786
1791
1850
1907
1948
1957
1902
1815
1763
1767
1813
1874
1925
1943
1915
1847
1777
1759
1803
1875
1935
1952
1927
1862
1798
1779
1808
1871
1931
1967
1950
1874
1794
1766
1786
1856
1941
1995
2009
1969
1904
1834
1798
1813
1868
1933
1967
1963
1907
1837
1787
1795
1847
1920
1968
1980
1954
1903
1851
1817
1836
1887
1938
1959
1941
1899
1856
1835
1863
1923
1975
2002
1969
1923
1863
1841
1856
1903
1951
1985
1997
1981
1931
1901
1909
1941
1989
2023
2023
1981
1913
1851
1828
1856
1927
2003
2058
2057
2011
1951
1942
1974
2029
2087
2112
2096
2047
1984
1934
1925
1959
2013
2047
2060
2005
1936
1869
1840
1855
1898
1950
1967
1936
1872
1802
1750
1776
1825
1901
1963
1979
1935
1872
1821
1808
1830
1889
1955
1982
1953
1863
1759
1702
1678
1674
1677
1667
1639
1594
1585
1622
1741
1920
2160
2387
2559
2698
2780
2837
2871
2879
2834
2734
2549
2327
2112
1934
1839
1819
1839
1860
1859
1811
1740
1670
1635
1648
1713
1814
1903
1941
1926
1865
1833
1837
1889
1957
2011
2026
1986
1922
1867
1840
1861
1910
1962
2000
1993
1945
1872
1840
1867
1918
1970
2001
1994
1945
1880
1824
1827
1893
1962
2017
2047
2027
1975
1919
1895
1920
1981
2055
2095
2085
2030
1953
1898
1905
1963
2047
2122
2141
2109
2042
1986
1971
2008
2085
2135
2159
2125
2077
2034
2026
2054
2110
2176
2215
2223
2203
2165
2156
2181
2238
2297
2362
2385
2355
2302
2259
2266
2320
2416
2501
2539
2510
2460
2416
2401
2433
2499
2559
2617
2592
2535
2482
2466
2482
2523
2559
2607
2598
2535
2457
2386
2352
2341
2352
2365
2349
2293
2215
2117
2059
2043
2071
2099
2095
2041
1971
1899
1839
1818
1837
1885
1926
1935
1890
1812
1765
1759
1798
1846
1886
1898
1867
1799
1738
1715
1746
1795
1833
1840
1807
1741
1686
1663
1686
1731
1777
1807
1805
1749
1680
1639
1648
1697
1758
1808
1826
1791
1717
1648
1616
1665
1744
1825
1863
1858
1815
1746
1690
1694
1747
1811
1840
1838
1798
1757
1735
1743
1783
1854
1911
1906
1851
1772
1712
1692
1712
1764
1825
1871
1859
1808
1746
1712
1712
1767
1833
1883
1894
1836
1753
1719
1733
1776
1825
1874
1915
1888
1835
1775
1737
1754
1808
1857
1891
1887
1840
1786
1752
1746
1791
1851
1894
1883
1842
1776
1731
1742
1792
1867
1919
1936
1911
1841
1755
1712
1746
1812
1871
1910
1911
1869
1815
1776
1782
1825
1887
1934
1935
1903
1835
1775
1764
1801
1869
1915
1915
1874
1821
1781
1781
1806
1866
1920
1947
1941
1883
1813
1782
1793
1843
1918
1967
1965
1938
1874
1833
1825
1845
1898
1962
2007
2006
1949
1879
1844
1867
1918
1970
2014
2017
1970
1899
1866
1888
1941
2002
2078
2102
2066
1999
1946
1939
1982
2043
2082
2075
2016
1951
1889
1857
1883
1939
1998
2032
2032
1985
1926
1890
1881
1905
1942
1971
1984
1961
1910
1858
1837
1871
1953
2025
2062
2035
1983
1921
1886
1889
1910
1932
1919
1854
1742
1621
1553
1565
1631
1763
1926
2086
2218
2347
2497
2683
2879
3063
3183
3183
3062
2855
2605
2364
2199
2102
2035
2000
1949
1875
1776
1686
1653
1690
1746
1799
1827
1811
1789
1779
1808
1872
1947
2012
2046
2022
1971
1905
1870
1882
1924
1965
2005
2011
1983
1933
1901
1915
1967
2018
2060
2064
2023
1968
1929
1922
1959
2014
2075
2096
2060
2000
1941
1920
1950
2012
2086
2115
2103
2060
1994
1955
1981
2034
2101
2149
2144
2099
2038
2000
2000
2032
2085
2131
2159
2141
2086
2019
1995
2011
2077
2160
2219
2228
2189
2137
2099
2117
2179
2256
2311
2324
2291
2245
2205
2203
2263
2358
2432
2470
2464
2423
2384
2384
2421
2486
2551
2603
2597
2545
2471
2432
2437
2469
2523
2559
2559
2548
2495
2434
2390
2406
2436
2463
2461
2398
2297
2199
2141
2121
2117
2119
2117
2074
1990
1916
1863
1850
1859
1888
1920
1905
1853
1777
1713
1696
1727
1776
1824
1835
1806
1743
1687
1663
1673
1722
1781
1808
1771
1716
1676
1664
1687
1726
1763
1811
1825
1790
1735
1693
1697
1735
1775
1803
1805
1779
1731
1675
1635
1649
1726
1798
1845
1842
1806
1741
1690
1693
1739
1795
1853
1859
1830
1773
1717
1687
1708
1745
1808
1855
1852
1810
1766
1726
1721
1769
1845
1895
1900
1856
1795
1768
1772
1814
1866
1906
1920
1878
1817
1757
1739
1765
1818
1885
1911
1898
1861
1804
1771
1779
1843
1907
1936
1909
1870
1838
1814
1824
1859
1911
1951
1938
1889
1810
1776
1763
1795
1867
1937
1967
1940
1887
1823
1791
1807
1865
1934
1966
1962
1917
1865
1833
1836
1872
1927
1968
1965
1915
1866
1813
1792
1825
1888
1941
1964
1937
1888
1834
1807
1823
1868
1920
1942
1934
1891
1822
1799
1831
1882
1945
1989
1995
1959
1904
1855
1840
1867
1920
1974
1992
1979
1932
1873
1844
1857
1914
1978
2011
2000
1962
1904
1863
1865
1902
1968
2018
2027
1989
1925
1855
1815
1851
1919
1973
2006
1984
1921
1842
1808
1836
1882
1938
1973
1966
1920
1858
1803
1791
1838
1902
1949
1968
1931
1870
1815
1807
1828
1867
1915
1933
1900
1839
1754
1680
1637
1631
1642
1631
1595
1535
1530
1596
1741
1945
2182
2426
2651
2819
2932
2987
2970
2927
2847
2710
2515
2278
2032
1833
1712
1683
1701
1721
1710
1664
1605
1535
1513
1535
1611
1680
1735
1749
1715
1669
1636
1622
1658
1703
1755
1783
1754
1694
1631
1598
1612
1663
1717
1782
1794
1759
1706
1648
1639
1663
1738
1779
1799
1773
1714
1674
1677
1723
1795
1859
1885
1860
1797
1729
1698
1718
1776
1856
1913
1917
1877
1808
1760
1763
1808
1883
1946
1979
1951
1877
1833
1840
1879
1953
2013
2033
2025
1986
1947
1939
1974
2047
2121
2155
2160
2146
2101
2065
2070
2125
2211
2285
2313
2301
2256
2236
2250
2298
2365
2447
2501
2512
2487
2443
2427
2458
2522
2589
2624
2624
2590
2529
2481
2458
2486
2539
2591
2592
2531
2430
2349
2323
2338
2367
2395
2380
2313
2219
2121
2042
2011
2033
2075
2094
2061
1987
1904
1839
1803
1823
1867
1907
1918
1899
1833
1767
1726
1745
1801
1844
1858
1824
1770
1719
1714
1755
1813
1874
1911
1904
1842
1763
1725
1733
1791
1867
1916
1930
1899
1840
1782
1776
1820
1873
1927
1950
1931
1881
1822
1792
1812
1856
1901
1937
1952
1920
1869
1825
1834
1872
1930
1970
1979
1947
1904
1867
1855
1871
1903
1943
1966
1950
1904
1863
1835
1842
1904
1990
2040
2038
1987
1913
1872
1875
1918
1990
2053
2063
2018
1953
1898
1891
1929
2001
2066
2093
2053
1985
1923
1893
1918
1967
2021
2065
2071
2034
1981
1936
1936
1967
2015
2057
2047
2019
1980
1953
1949
1975
2015
2064
2071
2046
2005
1959
1931
1945
1995
2059
2085
2072
2030
1983
1961
1966
1989
2032
2085
2103
2076
2013
1963
1943
1970
2013
2058
2090
2077
2023
1969
1941
1936
1977
2052
2097
2101
2059
2000
1955
1956
1986
2033
2083
2102
2073
2009
1965
1965
2007
2075
2128
2138
2103
2032
1970
1953
1977
2030
2108
2159
2159
2112
2058
2003
2017
2068
2132
2167
2169
2126
2059
2013
1998
2026
2076
2135
2164
2138
2083
2016
1954
1952
1999
2082
2123
2117
2081
2019
1968
1957
1985
2042
2094
2087
2042
1991
1955
1951
1988
2043
2095
2111
2084
2000
1913
1845
1808
1794
1783
1754
1718
1678
1660
1696
1826
2019
2265
2517
2763
2953
3097
3203
3277
3280
3226
3112
2926
2677
2408
2171
2015
1971
1984
2003
2006
1952
1872
1794
1755
1773
1829
1914
1970
1999
1991
1949
1905
1893
1920
1963
2012
2039
2025
1980
1924
1874
1871
1920
1999
2044
2035
1988
1931
1879
1851
1869
1895
1907
1865
1758
1616
1463
1359
1324
1351
1395
1431
1413
1360
1298
1253
1249
1286
1348
1391
1386
1344
1274
1227
1216
1248
1299
1334
1329
1296
1239
1199
1185
1232
1311
1381
1413
1392
1353
1305
1297
1333
1383
1444
1505
1535
1522
1503
1479
1501
1562
1648
1729
1781
1775
1717
1675
1666
1712
1795
1872
1926
1942
1927
1899
1890
1925
1989
2070
2114
2122
2090
2028
1969
1967
2021
2103
2148
2142
2095
2015
1954
1920
1927
1962
1977
1964
1903
1818
1730
1674
1665
1682
1709
1717
1687
1621
1535
1474
1456
1485
1531
1581
1570
1531
1478
1425
1397
1418
1479
1535
1574
1535
1488
1424
1392
1412
1478
1567
1612
1609
1578
1522
1492
1488
1527
1600
1655
1671
1651
1589
1527
1520
1581
1653
1725
1755
1741
1691
1633
1606
1623
1670
1728
1755
1749
1729
1693
1669
1671
1725
1793
1840
1854
1840
1791
1744
1728
1750
1806
1862
1881
1872
1820
1773
1748
1763
1818
1886
1936
1930
1875
1807
1749
1765
1824
1888
1930
1933
1895
1837
1802
1794
1840
1901
1966
1987
1968
1913
1859
1838
1856
1902
1959
1986
1987
1959
1905
1873
1872
1906
1963
2022
2058
2015
1956
1904
1890
1920
1985
2058
2077
2069
2001
1938
1887
1904
1956
2015
2074
2090
2037
1973
1925
1931
1982
2030
2086
2113
2099
2031
1981
1953
1968
2000
2059
2090
2064
2017
1962
1941
1963
2011
2075
2118
2096
2031
1950
1913
1933
1971
2020
2077
2109
2100
2044
1989
1972
1998
2064
2114
2160
2155
2116
2061
2009
2026
2084
2133
2167
2173
2128
2082
2055
2059
2115
2208
2282
2290
2246
2179
2107
2070
2107
2174
2230
2271
2254
2193
2128
2096
2101
2144
2199
2231
2224
2162
2094
2042
2034
2086
2149
2189
2192
2166
2114
2064
2059
2099
2159
2198
2224
2213
2166
2117
2097
2097
2121
2157
2177
2167
2086
1967
1854
1787
1775
1808
1885
1983
2084
2192
2324
2523
2778
3056
3315
3515
3580
3495
3315
3115
2915
2736
2579
2435
2325
2233
2135
2066
2018
2000
2016
2043
2058
2047
2000
1969
1982
2029
2117
2220
2275
2259
2210
2158
2126
2131
2169
2212
2237
2224
2182
2130
2107
2113
2153
2209
2256
2278
2250
2177
2109
2095
2132
2209
2289
2322
2304
2253
2201
2155
2129
2166
2224
2262
2267
2224
2175
2153
2160
2202
2277
2327
2338
2302
2241
2188
2160
2192
2253
2320
2354
2350
2301
2246
2224
2251
2295
2365
2422
2431
2391
2327
2288
2280
2314
2389
2463
2499
2487
2448
2409
2395
2431
2505
2597
2650
2647
2607
2559
2550
2559
2628
2706
2770
2774
2738
2688
2650
2657
2706
2771
2811
2816
2783
2730
2672
2641
2652
2679
2705
2700
2641
2559
2496
2437
2409
2416
2432
2430
2379
2304
2216
2139
2109
2103
2118
2151
2163
2107
2014
1941
1915
1915
1940
1978
2003
1994
1954
1891
1850
1856
1878
1918
1960
1981
1943
1882
1830
1819
1871
1936
1975
1971
1930
1866
1814
1801
1840
1904
1977
2001
1983
1930
1876
1861
1883
1923
1979
2007
2001
1958
1911
1887
1885
1922
1970
2016
2032
2011
1953
1900
1875
1902
1951
2002
2023
2000
1964
1919
1872
1873
1934
2004
2062
2066
2019
1961
1919
1910
1968
2027
2055
2033
1989
1936
1898
1881
1914
1970
2023
2043
2031
1989
1934
1901
1904
1938
2000
2058
2067
2032
1975
1936
1933
1966
2006
2054
2068
2054
1995
1936
1905
1921
1968
2035
2073
2059
2009
1947
1910
1909
1931
1970
2014
2031
2001
1941
1889
1886
1926
1981
2039
2078
2057
2000
1942
1905
1917
1971
2030
2064
2053
1989
1923
1893
1902
1950
2018
2077
2076
2017
1949
1896
1900
1943
2002
2061
2086
2047
1975
1910
1879
1898
1965
2059
2097
2082
2023
1951
1918
1933
1982
2046
2090
2101
2063
1987
1939
1945
1982
2029
2088
2112
2073
2000
1947
1945
1995
2066
2133
2151
2129
2083
2030
2002
2018
2060
2101
2136
2139
2094
2025
1970
1957
1997
2047
2073
2080
2047
1982
1918
1891
1923
1980
2036
2064
2035
1981
1919
1883
1897
1939
1999
2045
2064
2029
1966
1920
1914
1939
1974
1974
1936
1843
1731
1621
1557
1571
1651
1794
1931
2055
2170
2309
2481
2705
2950
3197
3371
3392
3254
3021
2754
2512
2350
2222
2151
2096
2022
1927
1834
1767
1745
1778
1839
1874
1875
1856
1817
1799
1826
1881
1960
2021
2043
1991
1911
1872
1869
1904
1961
2006
2009
1993
1943
1899
1877
1920
1973
2039
2091
2093
2035
1978
1938
1945
1990
2055
2095
2093
2045
1991
1938
1939
1987
2055
2091
2103
2081
2017
1973
1968
2009
2085
2151
2191
2160
2096
2022
1966
1973
2033
2106
2143
2160
2151
2109
2064
2059
2110
2174
2230
2255
2240
2180
2127
2113
2144
2203
2282
2325
2321
2288
2237
2212
2226
2293
2373
2457
2506
2500
2459
2418
2416
2469
2544
2619
2640
2608
2547
2496
2470
2479
2535
2607
2638
2623
2559
2485
2440
2443
2467
2496
2514
2480
2402
2306
2226
2186
2188
2210
2219
2185
2112
2000
1913
1872
1883
1919
1939
1937
1910
1855
1776
1719
1717
1755
1815
1858
1861
1809
1759
1714
1701
1727
1771
1808
1811
1779
1740
1683
1666
1691
1751
1808
1831
1806
1751
1698
1654
1663
1709
1766
1812
1825
1806
1757
1712
1712
1758
1810
1863
1885
1855
1791
1726
1691
1711
1776
1851
1899
1876
1834
1765
1726
1742
1797
1859
1894
1891
1870
1828
1783
1767
1808
1859
1909
1936
1898
1830
1785
1773
1807
1866
1924
1952
1936
1876
1815
1770
1777
1821
1882
1935
1943
1905
1838
1788
1778
1812
1870
1918
1936
1904
1840
1767
1738
1758
1824
1894
1946
1936
1892
1838
1798
1808
1840
1908
1965
1968
1934
1863
1817
1801
1825
1863
1906
1930
1921
1889
1837
1803
1833
1885
1949
2003
2000
1939
1874
1834
1833
1873
1938
1987
1999
1963
1891
1826
1822
1859
1920
1968
1991
1985
1938
1886
1858
1878
1933
2000
2045
2017
1954
1900
1882
1902
1956
2021
2077
2081
2037
1968
1911
1894
1923
1979
2035
2062
2047
2013
1971
1942
1947
2001
2073
2110
2102
2061
2007
1975
1975
2003
2047
2085
2085
2042
1984
1925
1904
1935
2000
2064
2096
2073
2011
1938
1899
1920
1978
2032
2067
2045
2002
1930
1882
1887
1927
1987
2027
2023
2000
1951
1904
1872
1869
1870
1858
1820
1744
1650
1584
1573
1663
1813
2020
2227
2401
2559
2721
2870
3043
3183
3241
3180
3007
2749
2454
2198
2017
1926
1903
1925
1935
1882
1795
1703
1649
1671
1727
1807
1872
1904
1904
1884
1877
1909
1963
2007
2045
2039
2006
1970
1943
1935
1961
2014
2064
2085
2066
2013
1970
1965
1999
2054
2101
2117
2097
2053
1997
1950
1946
1990
2047
2103
2121
2101
2039
1990
1968
2000
2066
2126
2159
2138
2075
2016
1997
2026
2094
2163
2191
2171
2116
2047
2015
2025
2075
2149
2202
2219
2189
2145
2111
2094
2121
2182
2256
2300
2288
2221
2169
2154
2191
2271
2353
2407
2419
2393
2349
2326
2349
2399
2479
2549
2559
2558
2515
2482
2481
2523
2598
2656
2689
2663
2609
2543
2506
2513
2559
2619
2648
2631
2559
2481
2423
2407
2420
2442
2447
2411
2322
2224
2144
2109
2107
2128
2145
2133
2083
1995
1904
1844
1828
1840
1875
1894
1869
1814
1757
1715
1713
1741
1778
1815
1809
1776
1712
1664
1659
1710
1776
1819
1829
1808
1746
1674
1654
1679
1746
1813
1841
1811
1772
1727
1681
1693
1744
1809
1862
1861
1822
1762
1706
1685
1719
1775
1828
1855
1851
1812
1774
1754
1778
1838
1891
1919
1891
1826
1762
1722
1731
1781
1840
1872
1882
1855
1808
1770
1762
1808
1882
1942
1968
1939
1879
1815
1791
1792
1840
1902
1931
1931
1903
1836
1782
1782
1819
1872
1926
1932
1878
1809
1763
1749
1777
1836
1887
1917
1883
1830
1778
1762
1791
1849
1904
1919
1915
1874
1823
1787
1785
1814
1872
1919
1919
1872
1809
1757
1743
1791
1872
1932
1952
1921
1858
1797
1763
1776
1823
1890
1933
1933
1892
1839
1792
1788
1812
1873
1937
1958
1920
1850
1787
1770
1807
1867
1919
1933
1911
1872
1840
1813
1820
1856
1918
1963
1951
1907
1862
1821
1808
1840
1887
1929
1936
1920
1867
1815
1801
1831
1882
1935
1950
1935
1883
1835
1811
1814
1872
1935
1975
1967
1919
1859
1827
1824
1866
1942
2003
2026
1986
1925
1875
1863
1907
1965
2002
2022
2012
1966
1909
1872
1883
1935
1989
2015
1991
1931
1858
1807
1815
1858
1919
1946
1937
1889
1823
1789
1777
1821
1866
1908
1916
1901
1861
1807
1776
1790
1840
1905
1943
1932
1863
1747
1646
1586
1557
1561
1579
1599
1616
1660
1743
1882
2103
2362
2622
2833
2979
3028
2991
2891
2769
2640
2491
2323
2143
1952
1813
1739
1715
1730
1765
1782
1753
1701
1646
1600
1600
1650
1759
1872
1942
1945
1904
1856
1828
1837
1879
1941
1984
1994
1953
1904
1872
1879
1921
1973
2007
2015
1982
1933
1883
1867
1897
1963
2015
2032
2012
1962
1899
1879
1891
1935
1994
2033
2039
2005
1943
1889
1888
1934
2000
2055
2067
2033
1977
1919
1911
1941
2021
2103
2128
2096
2032
1975
1937
1943
2002
2079
2128
2138
2107
2045
1997
1993
2039
2099
2144
2174
2159
2113
2064
2064
2122
2207
2285
2330
2326
2273
2226
2224
2269
2352
2439
2499
2503
2465
2422
2384
2382
2432
2495
2535
2544
2511
2420
2371
2372
2415
2461
2512
2523
2491
2416
2328
2270
2246
2256
2279
2261
2204
2113
2022
1952
1911
1914
1951
1997
1995
1937
1842
1761
1728
1739
1776
1828
1843
1814
1743
1678
1631
1646
1703
1770
1808
1808
1775
1718
1668
1664
1699
1757
1808
1827
1804
1741
1680
1664
1697
1759
1813
1841
1840
1808
1747
1711
1713
1761
1822
1871
1873
1841
1782
1761
1771
1817
1871
1904
1904
1859
1809
1767
1757
1791
1853
1911
1939
1915
1872
1831
1807
1831
1883
1943
1978
1968
1916
1856
1821
1838
1880
1941
1998
2019
1998
1935
1870
1842
1872
1938
2002
2038
2014
1968
1916
1895
1904
1953
2015
2064
2069
2027
1963
1909
1910
1956
2015
2064
2070
2034
1989
1952
1950
1987
2043
2103
2128
2104
2041
1983
1954
1970
2018
2085
2128
2126
2081
2006
1961
1974
2015
2067
2127
2144
2122
2059
1998
1970
1984
2043
2103
2128
2101
2063
2023
1995
2012
2076
2135
2178
2162
2103
2029
1975
1969
2013
2076
2125
2128
2083
2006
1966
1955
1995
2062
2122
2139
2113
2056
1994
1958
1974
2017
2075
2116
2110
2031
1968
1951
1979
2038
2111
2153
2151
2109
2043
1991
1968
1989
2032
2071
2087
2066
2013
1978
1959
2000
2064
2128
2159
2142
2090
2016
1973
1969
2000
2055
2095
2093
2058
1997
1969
1968
1986
2055
2129
2160
2128
2061
1989
1941
1947
2001
2077
2115
2115
2067
2000
1967
1979
2027
2091
2135
2135
2090
2016
1975
1970
1993
2035
2096
2123
2097
2037
1979
1956
1974
2015
2082
2117
2122
2083
2016
1975
1981
2007
2061
2113
2131
2113
2066
2008
1987
1998
2059
2121
2146
2128
2086
2025
1985
2013
2082
2137
2189
2205
2174
2114
2070
2047
2083
2133
2174
2186
2161
2101
2028
1990
2012
2069
2128
2147
2112
2054
1979
1933
1952
2001
2081
2115
2119
2064
1984
1936
1937
1977
2037
2089
2099
2062
1997
1934
1903
1904
1930
1945
1949
1901
1806
1701
1620
1611
1683
1822
1980
2135
2282
2425
2606
2805
3034
3263
3408
3401
3255
3031
2773
2542
2359
2225
2155
2118
2070
1983
1882
1796
1770
1808
1872
1930
1938
1902
1845
1819
1828
1882
1962
2027
2043
2016
1963
1907
1884
1914
1968
2011
2032
2005
1955
1902
1867
1882
1949
2021
2069
2064
2004
1934
1890
1904
1961
2033
2078
2087
2064
2010
1958
1943
1979
2058
2128
2148
2111
2043
1970
1931
1930
1964
2023
2075
2093
2062
2001
1965
1968
2019
2096
2145
2156
2112
2037
1984
1967
1988
2064
2143
2192
2180
2129
2083
2064
2078
2126
2190
2239
2256
2246
2210
2194
2215
2273
2343
2403
2431
2405
2361
2325
2327
2374
2441
2494
2517
2500
2463
2417
2405
2436
2487
2544
2587
2559
2515
2439
2399
2398
2432
2479
2503
2480
2423
2344
2262
2199
2192
2218
2235
2226
2168
2093
2000
1936
1915
1939
1980
1994
1965
1890
1798
1733
1717
1744
1802
1846
1861
1818
1743
1664
1618
1621
1683
1767
1799
1777
1731
1697
1680
1701
1741
1789
1818
1806
1748
1683
1648
1637
1665
1742
1807
1833
1823
1776
1715
1689
1711
1750
1790
1817
1803
1765
1715
1691
1710
1759
1825
1872
1863
1811
1747
1701
1691
1731
1790
1824
1840
1827
1783
1747
1731
1765
1828
1875
1897
1877
1823
1761
1730
1754
1822
1887
1919
1914
1872
1806
1747
1735
1776
1845
1911
1935
1904
1840
1775
1759
1792
1851
1904
1914
1892
1844
1791
1758
1764
1805
1855
1893
1879
1838
1797
1762
1764
1801
1858
1911
1926
1904
1840
1776
1755
1781
1840
1911
1956
1939
1897
1837
1795
1791
1820
1871
1921
1936
1893
1835
1795
1807
1845
1909
1953
1957
1922
1869
1819
1801
1831
1879
1934
1959
1937
1895
1837
1802
1811
1871
1931
1970
1978
1940
1883
1826
1803
1840
1909
1969
1982
1947
1889
1837
1817
1847
1904
1962
2001
1987
1949
1902
1847
1831
1872
1964
2022
2023
1975
1915
1872
1859
1895
1955
2015
2035
2018
1969
1906
1885
1897
1942
1987
2001
1984
1935
1885
1856
1863
1910
1979
2029
2039
2000
1943
1898
1902
1936
1978
2019
2033
2007
1950
1887
1871
1888
1943
1995
2015
2000
1966
1918
1888
1900
1939
1985
2025
2022
1987
1938
1897
1878
1909
1966
1997
1991
1977
1953
1930
1930
1967
2022
2083
2113
2096
2021
1936
1890
1901
1951
2031
2093
2099
2064
2000
1962
1968
2010
2086
2143
2157
2113
2032
1974
1941
1968
2026
2081
2102
2086
2027
1967
1913
1904
1939
2003
2065
2068
2019
1955
1899
1887
1917
1975
2042
2073
2038
1981
1911
1859
1871
1925
1983
2025
2020
1970
1895
1821
1776
1770
1771
1749
1709
1648
1601
1628
1725
1908
2159
2428
2685
2907
3046
3120
3180
3195
3187
3105
2919
2672
2401
2160
1971
1893
1887
1913
1910
1879
1823
1755
1726
1728
1769
1840
1907
1947
1936
1889
1858
1857
1901
1952
1999
2022
1984
1932
1878
1842
1853
1903
1965
2000
2007
1981
1925
1893
1893
1925
1965
2005
2031
2011
1959
1911
1900
1923
1995
2065
2096
2070
2007
1913
1862
1885
1953
2032
2087
2078
2035
1989
1946
1936
1971
2054
2125
2133
2084
2029
1994
1999
2034
2098
2153
2177
2160
2111
2058
2019
2032
2099
2175
2225
2231
2200
2147
2113
2112
2163
2243
2320
2352
2340
2286
2254
2245
2282
2346
2413
2453
2451
2419
2384
2371
2389
2459
2528
2603
2621
2588
2517
2462
2439
2455
2518
2578
2608
2583
2502
2432
2384
2376
2401
2431
2419
2376
2299
2214
2133
2093
2090
2115
2131
2112
2041
1946
1869
1831
1838
1873
1901
1901
1859
1777
1701
1664
1681
1718
1773
1799
1782
1728
1652
1597
1600
1648
1717
1775
1795
1767
1712
1665
1645
1663
1712
1753
1762
1731
1686
1648
1643
1668
1723
1789
1834
1813
1759
1676
1616
1599
1607
1631
1664
1680
1646
1584
1520
1494
1517
1574
1627
1660
1647
1610
1535
1516
1525
1567
1619
1664
1659
1616
1581
1568
1572
1605
1663
1707
1707
1655
1577
1520
1531
1607
1683
1731
1750
1725
1664
1606
1567
1582
1616
1662
1675
1651
1607
1535
1513
1535
1616
1695
1744
1730
1664
1587
1532
1520
1566
1643
1723
1775
1778
1742
1691
1646
1665
1718
1781
1796
1760
1691
1632
1633
1667
1723
1783
1830
1829
1781
1726
1697
1686
1711
1751
1806
1828
1803
1744
1698
1687
1717
1776
1823
1855
1839
1791
1737
1712
1734
1785
1855
1904
1918
1873
1807
1747
1742
1778
1861
1920
1930
1898
1840
1789
1774
1793
1846
1913
1966
1955
1917
1873
1839
1819
1823
1871
1911
1919
1902
1869
1833
1840
1886
1931
1974
2006
2001
1958
1883
1846
1859
1917
1974
2005
1991
1936
1874
1853
1856
1887
1963
2032
2043
1985
1912
1863
1881
1941
2023
2079
2091
2034
1973
1921
1901
1923
1970
2029
2065
2061
2001
1951
1930
1945
1995
2055
2111
2119
2089
2019
1957
1933
1955
2031
2112
2154
2128
2063
2010
1987
2013
2083
2147
2192
2186
2133
2064
1991
1977
2006
2071
2131
2133
2086
2023
1959
1933
1965
2015
2073
2096
2079
2025
1959
1931
1958
2014
2067
2112
2111
2070
2006
1961
1936
1959
2016
2047
2039
1971
1871
1763
1680
1663
1698
1761
1809
1859
1911
2012
2187
2407
2670
2939
3197
3361
3405
3303
3145
2947
2743
2583
2435
2291
2139
2005
1906
1856
1867
1906
1934
1941
1910
1861
1830
1819
1855
1929
2013
2070
2073
2031
1978
1954
1954
1986
2042
2087
2091
2032
1945
1904
1920
1965
2043
2117
2139
2101
2009
1956
1947
1982
2032
2099
2126
2122
2055
1977
1937
1951
2014
2097
2157
2165
2131
2071
2020
2010
2043
2097
2150
2170
2154
2112
2070
2041
2058
2103
2162
2208
2206
2160
2103
2067
2081
2131
2207
2254
2273
2256
2205
2151
2131
2161
2233
2307
2346
2320
2247
2192
2183
2222
2290
2369
2430
2441
2411
2359
2328
2338
2396
2495
2559
2605
2580
2527
2499
2510
2546
2625
2693
2715
2683
2615
2546
2514
2533
2584
2643
2674
2642
2559
2471
2398
2362
2366
2374
2372
2335
2259
2162
2063
1997
1981
1985
2002
2000
1951
1873
1805
1744
1743
1791
1840
1854
1843
1780
1685
1635
1622
1648
1712
1761
1786
1765
1708
1641
1617
1621
1659
1733
1795
1792
1729
1646
1601
1617
1675
1744
1793
1789
1743
1682
1640
1647
1698
1773
1814
1822
1786
1724
1674
1664
1695
1747
1810
1842
1833
1790
1718
1676
1690
1751
1838
1887
1878
1814
1746
1711
1707
1750
1820
1875
1894
1866
1807
1745
1728
1757
1818
1870
1891
1867
1808
1741
1706
1728
1777
1843
1883
1879
1855
1803
1753
1744
1791
1856
1904
1914
1889
1815
1759
1744
1792
1861
1907
1922
1900
1845
1792
1776
1798
1856
1922
1958
1935
1883
1808
1757
1764
1823
1887
1948
1970
1936
1853
1771
1734
1767
1840
1909
1939
1927
1883
1827
1809
1828
1872
1911
1936
1937
1904
1857
1808
1802
1851
1914
1959
1972
1937
1872
1810
1795
1824
1871
1932
1965
1939
1885
1826
1806
1811
1851
1893
1934
1939
1920
1872
1814
1805
1856
1915
1966
1980
1945
1873
1808
1765
1776
1841
1901
1920
1913
1882
1827
1779
1769
1827
1890
1946
1963
1925
1869
1813
1787
1808
1870
1936
1983
1954
1889
1849
1840
1872
1936
1997
2015
1983
1936
1879
1849
1861
1899
1943
1984
1982
1923
1841
1771
1732
1748
1809
1871
1887
1872
1826
1777
1751
1778
1842
1894
1905
1872
1819
1761
1737
1751
1801
1867
1904
1892
1837
1775
1717
1697
1701
1703
1681
1640
1566
1473
1438
1485
1597
1769
1974
2198
2384
2549
2683
2832
2987
3103
3119
2999
2783
2506
2225
1997
1850
1783
1787
1817
1804
1735
1638
1567
1533
1556
1620
1717
1792
1813
1806
1782
1779
1823
1895
1959
1980
1958
1919
1850
1797
1793
1838
1904
1973
1996
1963
1904
1856
1847
1857
1917
1984
2023
1999
1959
1912
1893
1914
1969
2017
2047
2042
2001
1938
1886
1874
1925
2000
2055
2071
2035
1998
1955
1949
1981
2028
2094
2134
2128
2064
1999
1956
1965
2019
2112
2175
2192
2161
2112
2074
2070
2119
2183
2231
2246
2225
2189
2150
2142
2183
2258
2326
2372
2368
2323
2288
2286
2325
2410
2495
2556
2559
2522
2449
2403
2433
2512
2607
2673
2695
2676
2615
2545
2511
2523
2559
2659
2704
2685
2613
2522
2464
2448
2466
2488
2487
2450
2370
2277
2193
2155
2145
2160
2167
2143
2079
1984
1904
1847
1839
1852
1889
1909
1879
1821
1745
1711
1707
1744
1791
1821
1807
1757
1697
1664
1670
1725
1802
1851
1862
1811
1734
1670
1642
1670
1751
1841
1887
1870
1814
1759
1719
1715
1755
1822
1851
1853
1815
1772
1719
1708
1745
1797
1840
1856
1840
1797
1750
1734
1775
1823
1899
1950
1950
1885
1806
1781
1777
1815
1867
1923
1933
1904
1846
1806
1805
1851
1913
1965
1971
1936
1887
1841
1815
1851
1910
1963
1973
1919
1847
1802
1790
1828
1890
1948
1984
1971
1929
1863
1829
1838
1875
1936
1983
1994
1967
1906
1857
1839
1859
1904
1949
1985
1970
1923
1863
1822
1827
1875
1936
1971
1982
1951
1887
1839
1827
1857
1921
1967
1998
1986
1939
1890
1865
1879
1916
1971
2000
1983
1937
1895
1875
1902
1950
2004
2031
2029
1979
1909
1862
1854
1895
1977
2064
2092
2061
1979
1890
1857
1871
1920
1995
2037
2028
1997
1933
1889
1903
1953
2028
2085
2081
2041
1979
1922
1907
1945
2018
2084
2098
2069
2019
1959
1935
1975
2063
2134
2174
2156
2091
2015
1971
1969
2000
2039
2081
2080
2032
1971
1915
1915
1955
2016
2069
2090
2039
1979
1924
1895
1909
1957
2019
2064
2039
1979
1903
1856
1871
1925
1984
2041
2059
2007
1921
1826
1760
1735
1729
1735
1727
1701
1694
1729
1835
2026
2273
2530
2769
2937
3024
3037
2990
2928
2849
2731
2559
2375
2171
1999
1885
1838
1830
1845
1872
1869
1810
1737
1683
1663
1699
1781
1891
1970
2011
1991
1938
1915
1936
1978
2037
2087
2085
2031
1956
1904
1909
1955
2013
2067
2094
2073
2026
1979
1963
1983
2037
2097
2126
2096
2042
1985
1959
1979
2019
2079
2127
2130
2078
2013
1968
1967
2003
2081
2139
2166
2150
2091
2032
2002
2019
2080
2155
2190
2188
2143
2096
2074
2083
2128
2197
2242
2250
2207
2154
2113
2117
2160
2238
2288
2302
2277
2242
2193
2196
2245
2319
2391
2448
2435
2399
2354
2309
2339
2432
2543
2620
2638
2608
2559
2520
2512
2558
2624
2683
2694
2674
2613
2541
2500
2519
2559
2619
2627
2602
2527
2458
2401
2378
2372
2385
2375
2333
2240
2142
2047
1987
1984
2011
2047
2057
2001
1911
1818
1766
1766
1797
1838
1858
1835
1776
1716
1677
1685
1729
1802
1857
1854
1802
1731
1657
1633
1665
1732
1785
1786
1748
1684
1634
1629
1667
1737
1794
1825
1813
1767
1685
1641
1648
1713
1804
1857
1841
1807
1748
1711
1707
1741
1791
1830
1842
1826
1776
1726
1702
1728
1785
1840
1882
1870
1808
1757
1739
1759
1815
1883
1918
1910
1867
1792
1743
1735
1779
1840
1891
1901
1872
1821
1778
1774
1794
1850
1904
1914
1887
1845
1808
1779
1776
1808
1867
1915
1921
1882
1815
1773
1777
1827
1887
1932
1944
1905
1839
1776
1765
1806
1866
1917
1942
1933
1889
1818
1769
1774
1816
1888
1939
1946
1904
1839
1785
1769
1801
1846
1915
1941
1933
1887
1825
1789
1809
1868
1921
1962
1959
1907
1838
1791
1795
1846
1907
1947
1965
1931
1872
1840
1846
1892
1959
2013
2027
1981
1920
1856
1806
1814
1873
1953
2009
2019
1982
1933
1914
1939
1997
2054
2086
2069
2011
1938
1887
1878
1920
1983
2023
2033
2000
1933
1870
1845
1859
1907
1970
2006
1980
1919
1854
1812
1813
1873
1959
2029
2032
1978
1905
1843
1842
1871
1936
1982
1990
1955
1885
1794
1719
1669
1653
1664
1681
1699
1712
1735
1823
1993
2231
2512
2787
2997
3132
3165
3115
3011
2903
2787
2636
2455
2253
2046
1897
1817
1808
1826
1856
1871
1857
1808
1740
1709
1717
1770
1856
1936
1982
1970
1922
1885
1890
1936
2003
2059
2075
2047
1983
1910
1863
1873
1936
2000
2035
2023
1982
1937
1908
1920
1969
2038
2097
2115
2084
2005
1920
1901
1946
2029
2087
2123
2096
2043
1991
1967
1981
2037
2119
2173
2169
2114
2059
2007
2017
2082
2135
2171
2171
2131
2064
2014
2017
2069
2147
2214
2247
2225
2175
2133
2117
2125
2173
2229
2290
2282
2237
2207
2209
2239
2305
2394
2460
2484
2464
2401
2345
2337
2403
2498
2559
2613
2608
2559
2542
2529
2554
2617
2682
2715
2699
2635
2538
2479
2488
2555
2627
2672
2663
2601
2506
2415
2359
2347
2357
2379
2367
2298
2201
2106
2027
2001
2015
2042
2073
2046
1967
1872
1806
1796
1834
1887
1914
1903
1850
1773
1713
1702
1738
1799
1843
1863
1835
1771
1719
1709
1725
1773
1841
1887
1875
1834
1782
1737
1730
1777
1837
1877
1868
1816
1767
1728
1730
1773
1840
1897
1915
1888
1835
1778
1752
1776
1837
1896
1936
1921
1874
1809
1758
1754
1786
1845
1906
1936
1911
1845
1791
1778
1815
1866
1904
1933
1915
1859
1805
1779
1782
1838
1900
1942
1936
1879
1808
1777
1791
1838
1894
1938
1955
1919
1856
1797
1773
1787
1834
1898
1926
1909
1856
1794
1763
1781
1840
1911
1951
1946
1903
1841
1797
1787
1825
1875
1923
1931
1889
1839
1783
1769
1813
1877
1943
1958
1919
1850
1789
1763
1779
1825
1902
1954
1941
1879
1807
1766
1774
1831
1911
1968
1970
1922
1851
1783
1770
1803
1859
1920
1950
1931
1884
1834
1821
1845
1890
1942
1981
1967
1914
1862
1806
1808
1859
1930
1989
2007
1981
1921
1867
1850
1891
1948
2009
2039
1990
1920
1867
1842
1858
1903
1947
1974
1937
1872
1810
1789
1807
1855
1923
1968
1979
1949
1878
1809
1776
1807
1862
1913
1941
1936
1884
1833
1799
1812
1858
1910
1937
1903
1803
1667
1569
1519
1520
1559
1621
1683
1746
1825
1943
2138
2402
2704
2969
3175
3247
3184
3039
2877
2707
2547
2412
2261
2123
1994
1888
1810
1775
1773
1789
1809
1805
1771
1729
1703
1705
1758
1845
1911
1942
1925
1865
1805
1775
1792
1846
1920
1979
1987
1943
1877
1830
1826
1872
1919
1949
1961
1946
1898
1856
1840
1862
1921
1972
1995
1966
1904
1844
1831
1856
1904
1973
2023
2014
1968
1910
1876
1878
1906
1953
1997
2023
2007
1962
1917
1904
1936
1984
2029
2069
2054
2006
1958
1947
1971
2000
2061
2110
2112
2065
2014
1995
2017
2069
2139
2192
2202
2177
2131
2096
2110
2164
2241
2299
2334
2321
2289
2259
2258
2288
2347
2420
2480
2498
2470
2416
2384
2384
2418
2499
2559
2559
2514
2437
2378
2350
2368
2416
2454
2455
2413
2335
2253
2192
2169
2178
2189
2186
2138
2046
1936
1850
1821
1839
1861
1878
1868
1811
1739
1663
1611
1593
1621
1665
1703
1699
1649
1591
1554
1566
1602
1664
1706
1696
1648
1579
1523
1531
1584
1650
1697
1696
1666
1616
1577
1535
1567
1611
1657
1680
1659
1587
1523
1507
1535
1610
1683
1716
1699
1637
1584
1535
1533
1583
1650
1719
1739
1706
1658
1616
1605
1633
1682
1726
1745
1727
1674
1607
1556
1559
1616
1679
1723
1731
1691
1632
1594
1599
1635
1690
1732
1741
1695
1634
1581
1565
1604
1662
1712
1744
1741
1701
1653
1623
1631
1680
1729
1765
1759
1703
1639
1599
1590
1611
1669
1746
1782
1765
1717
1671
1637
1649
1707
1751
1771
1734
1677
1627
1602
1607
1662
1730
1791
1789
1742
1680
1635
1613
1620
1681
1757
1779
1751
1698
1651
1646
1671
1727
1764
1792
1783
1728
1670
1641
1650
1711
1767
1795
1769
1723
1654
1627
1660
1718
1791
1843
1856
1822
1771
1727
1706
1733
1778
1831
1834
1794
1735
1696
1690
1726
1792
1863
1918
1920
1885
1824
1778
1769
1804
1854
1872
1857
1833
1776
1738
1728
1772
1814
1854
1872
1854
1801
1755
1721
1721
1746
1792
1829
1826
1783
1722
1670
1666
1701
1765
1837
1871
1855
1810
1759
1722
1734
1773
1811
1815
1759
1669
1567
1472
1429
1427
1458
1521
1578
1616
1691
1835
2027
2260
2531
2795
2995
3108
3089
2974
2836
2687
2538
2382
2215
2041
1899
1779
1699
1679
1710
1750
1776
1753
1710
1653
1616
1625
1671
1733
1795
1840
1827
1783
1744
1724
1767
1810
1855
1862
1839
1778
1722
1693
1705
1759
1830
1868
1872
1840
1773
1730
1727
1767
1829
1897
1904
1867
1798
1729
1706
1750
1831
1887
1927
1917
1869
1812
1776
1787
1847
1905
1936
1920
1870
1803
1763
1771
1823
1891
1937
1947
1920
1861
1811
1822
1871
1935
1998
2015
1987
1937
1889
1873
1899
1963
2032
2084
2095
2054
2002
1975
2010
2093
2178
2246
2276
2262
2217
2191
2202
2245
2325
2401
2434
2441
2414
2360
2335
2359
2417
2487
2537
2525
