2282
2062
1756
1584
1630
1843
2126
2330
2329
2146
1871
1667
1629
1787
2070
2304
2373
2245
1981
1722
1631
1747
2001
2277
2432
2373
2126
1814
1638
1664
1872
2169
2370
2385
2197
1916
1705
1670
1840
2121
2380
2462
2327
2046
1783
1671
1770
2024
2303
2451
2403
2160
1872
1710
1745
1957
2243
2443
2462
2279
2000
1791
1746
1925
2224
2507
2614
2480
2196
1925
1797
1895
2163
2451
2609
2546
2320
2036
1842
1866
2081
2359
2559
2629
2461
2176
1933
1874
2053
2321
2559
2662
2527
2241
1946
1813
1901
2151
2416
2581
2530
2313
2030
1811
1807
1975
2241
2435
2429
2225
1914
1659
1583
1747
2060
2311
2394
2257
1967
1675
1515
1586
1823
2116
2292
2254
2035
1744
1517
1510
1712
1989
2208
2246
2071
1765
1488
1408
1566
1855
2140
2259
2155
1887
1605
1446
1526
1793
2094
2285
2241
2003
1692
1472
1483
1706
1996
2222
2288
2140
1840
1591
1517
1664
1951
2233
2337
2211
1952
1679
1508
1582
1821
2128
2314
2277
2033
1742
1525
1521
1743
2057
2305
2349
2165
1855
1588
1507
1655
1938
2227
2340
2216
1927
1627
1461
1535
1822
2156
2357
2311
2074
1760
1535
1521
1715
2006
2265
2326
2170
1881
1616
1497
1619
1897
2174
2306
2215
1939
1631
1450
1520
1786
2115
2337
2318
2093
1771
1522
1509
1726
2064
2352
2410
2228
1903
1606
1482
1626
1938
2268
2432
2338
2039
1717
1524
1584
1823
2132
2372
2389
2192
1861
1605
1577
1773
2087
2358
2437
2286
1982
1684
1583
1751
2080
2384
2529
2443
2163
1855
1659
1699
1936
2254
2483
2510
2299
1966
1686
1629
1811
2158
2446
2522
2378
2064
1759
1622
1729
2006
2314
2477
2393
2112
1774
1566
1615
1858
2174
2391
2399
2157
1805
1521
1463
1670
2003
2291
2410
2274
1967
1670
1535
1661
1933
2236
2406
2336
2077
1753
1531
1575
1849
2205
2476
2535
2368
2089
1869
1875
2121
2499
2859
3010
2864
2518
2159
1954
1974
2128
2265
2286
2093
1731
1349
1122
1136
1390
1760
2080
2185
2044
1755
1499
1447
1650
1984
2303
2441
2317
1997
1680
1515
1622
1927
2266
2469
2417
2175
1837
1587
1586
1823
2157
2416
2479
2283
1927
1623
1552
1735
2067
2368
2487
2359
2045
1735
1570
1681
1979
2323
2541
2455
2159
1815
1615
1645
1883
2224
2496
2553
2367
2033
1743
1659
1825
2150
2465
2619
2500
2194
1861
1683
1765
2037
2375
2595
2559
2317
1966
1723
1733
1985
2333
2582
2611
2407
2080
1794
1691
1839
2148
2451
2617
2515
2240
1920
1745
1827
2112
2436
2649
2614
2358
2033
1811
1844
2095
2439
2721
2777
2559
2234
1923
1831
2000
2336
2646
2775
2642
2320
1978
1788
1867
2147
2489
2718
2703
2442
2096
1815
1780
1984
2341
2639
2719
2519
2161
1827
1702
1793
2084
2389
2527
2423
2112
1755
1563
1626
1887
2231
2447
2395
2126
1748
1469
1461
1687
2022
2320
2414
2238
1891
1582
1441
1567
1869
2200
2375
2276
1972
1622
1406
1469
1743
2093
2325
2317
2092
1740
1471
1444
1664
1990
2282
2359
2177
1841
1522
1399
1531
1866
2203
2358
2261
1968
1648
1454
1509
1796
2132
2367
2347
2093
1725
1445
1426
1650
2002
2313
2395
2224
1882
1564
1430
1557
1871
2217
2405
2307
2007
1673
1459
1507
1778
2128
2373
2383
2160
1818
1533
1483
1683
2032
2331
2422
2259
1930
1597
1441
1576
1905
2253
2450
2379
2083
1711
1478
1507
1765
2110
2351
2365
2147
1811
1535
1493
1710
2030
2319
2414
2257
1928
1603
1457
1582
1883
2215
2406
2354
2101
1775
1535
1566
1808
2128
2355
2367
2160
1835
1566
1506
1685
2006
2310
2419
2285
1968
1648
1501
1610
1901
2239
2425
2352
2079
1728
1503
1535
1801
2169
2432
2459
2247
1906
1645
1594
1774
2083
2382
2493
2340
2016
1703
1555
1661
1955
2304
2505
2463
2192
1862
1629
1642
1873
2213
2462
2496
2289
1946
1638
1527
1675
1953
2241
2357
2224
1930
1639
1482
1574
1856
2176
2371
2327
2068
1719
1488
1503
1743
2079
2337
2370
2163
1826
1553
1475
1649
1962
2267
2383
2253
1974
1698
1611
1765
2112
2522
2828
2846
2633
2329
2143
2153
2338
2582
2738
2640
2271
1759
1314
1102
1187
1471
1790
1954
1866
1614
1353
1255
1391
1712
2096
2349
2339
2091
1744
1488
1483
1713
2047
2345
2406
2214
1869
1581
1497
1679
1998
2297
2423
2313
2015
1683
1521
1614
1897
2243
2461
2416
2176
1842
1589
1562
1782
2117
2386
2459
2311
2001
1691
1574
1707
2009
2322
2465
2349
2032
1706
1526
1609
1887
2241
2471
2448
2203
1858
1610
1584
1792
2135
2434
2525
2357
2019
1702
1587
1743
2058
2381
2543
2448
2155
1808
1612
1681
1958
2313
2549
2531
2305
1937
1692
1696
1904
2239
2523
2612
2416
2071
1767
1663
1819
2161
2492
2657
2559
2281
1943
1733
1780
2046
2416
2672
2670
2423
2093
1850
1826
2014
2325
2605
2672
2480
2141
1851
1751
1903
2207
2499
2661
2558
2256
1915
1693
1724
1991
2321
2533
2503
2250
1881
1607
1564
1745
2070
2361
2450
2272
1925
1596
1439
1564
1866
2192
2351
2250
1943
1603
1397
1426
1691
2032
2271
2279
2035
1681
1403
1374
1602
1955
2248
2310
2131
1823
1500
1375
1499
1824
2134
2295
2214
1924
1568
1363
1435
1719
2061
2286
2291
2053
1703
1443
1399
1611
1942
2231
2322
2174
1853
1535
1402
1532
1867
2240
2435
2310
1970
1600
1379
1403
1651
1989
2257
2288
2081
1744
1472
1414
1623
1968
2277
2378
2239
1938
1645
1469
1535
1821
2167
2374
2303
2017
1677
1443
1487
1750
2075
2318
2344
2128
1779
1480
1408
1613
1954
2256
2357
2221
1917
1614
1433
1519
1807
2126
2325
2287
2027
1696
1471
1489
1731
2064
2322
2354
2157
1813
1519
1446
1631
1968
2290
2407
2256
1936
1600
1428
1524
1819
2149
2352
2309
2037
1690
1455
1475
1729
2067
2334
2366
2176
1847
1563
1475
1648
1951
2240
2370
2246
1949
1635
1460
1567
1865
2207
2418
2374
2127
1802
1577
1581
1799
2130
2399
2433
2237
1889
1604
1520
1701
2027
2331
2474
2351
2031
1713
1553
1635
1904
2229
2427
2368
2093
1750
1524
1507
1707
2003
2266
2302
2106
1792
1535
1456
1607
1923
2240
2368
2224
1910
1584
1411
1501
1777
2105
2320
2283
2029
1710
1479
1474
1712
2067
2367
2446
2274
1979
1742
1703
1926
2290
2665
2847
2768
2479
2112
1885
1904
2112
2327
2381
2187
1810
1369
1040
981
1201
1569
1895
2025
1914
1648
1393
1341
1519
1854
2186
2351
2259
1963
1651
1471
1535
1815
2160
2375
2346
2105
1761
1507
1523
1767
2112
2384
2442
2254
1899
1598
1491
1638
1951
2269
2422
2320
2032
1710
1521
1584
1862
2208
2444
2414
2177
1840
1601
1589
1793
2128
2398
2467
2292
1953
1648
1552
1714
2023
2333
2491
2416
2134
1801
1584
1611
1845
2180
2442
2449
2214
1858
1607
1591
1775
2109
2403
2482
2319
1990
1701
1602
1750
2070
2409
2598
2502
2210
1855
1648
1712
1990
2357
2615
2612
2361
2003
1742
1712
1936
2302
2621
2726
2546
2209
1887
1760
1904
2224
2559
2741
2621
2307
1985
1767
1804
2054
2389
2630
2641
2416
2079
1806
1757
1965
2295
2596
2698
2518
2164
1813
1648
1745
2037
2355
2530
2435
2147
1801
1581
1615
1856
2176
2411
2419
2181
1820
1523
1463
1664
2000
2315
2422
2239
1872
1533
1379
1495
1800
2142
2325
2256
1971
1616
1381
1409
1665
2009
2262
2279
2075
1744
1470
1415
1600
1925
2215
2315
2157
1831
1515
1377
1507
1817
2145
2342
2282
1985
1639
1419
1465
1728
2070
2329
2355
2115
1767
1473
1402
1589
1922
2229
2351
2205
1885
1575
1425
1535
1853
2192
2389
2326
2070
1727
1486
1507
1741
2093
2350
2374
2160
1811
1520
1445
1621
1946
2255
2379
2237
1903
1582
1428
1530
1827
2174
2359
2304
2032
1701
1466
1474
1710
2026
2307
2370
2176
1835
1535
1466
1648
1964
2255
2381
2240
1927
1600
1439
1558
1861
2193
2397
2343
2078
1747
1531
1561
1785
2124
2374
2417
2221
1885
1594
1507
1665
1974
2290
2432
2315
2013
1712
1577
1679
1962
2263
2438
2399
2151
1821
1616
1633
1851
2179
2455
2523
2320
1974
1675
1572
1713
2010
2301
2419
2290
1981
1648
1470
1553
1825
2162
2369
2318
2059
1717
1489
1488
1718
2057
2327
2374
2194
1859
1559
1442
1589
1915
2240
2386
2268
1966
1647
1471
1535
1841
2241
2523
2531
2311
2023
1826
1853
2125
2508
2817
2871
2643
2266
1929
1751
1806
1982
2129
2145
1921
1559
1198
1005
1109
1425
1818
2089
2128
1952
1655
1437
1452
1693
2043
2320
2387
2215
1881
1561
1456
1658
1997
2319
2471
2363
2059
1728
1522
1590
1854
2192
2416
2402
2160
1825
1581
1553
1777
2125
2413
2502
2341
2014
1699
1568
1705
2003
2321
2487
2416
2134
1801
1582
1620
1885
2238
2496
2513
2279
1927
1666
1630
1828
2160
2435
2513
2347
2021
1718
1597
1729
2041
2375
2551
2480
2225
1903
1685
1722
1969
2300
2533
2540
2309
1968
1709
1675
1877
2226
2544
2672
2525
2183
1842
1695
1808
2112
2447
2639
2585
2315
1989
1793
1841
2106
2439
2679
2699
2483
2162
1889
1829
1999
2320
2619
2704
2557
2270
1981
1846
1953
2247
2555
2720
2639
2347
2015
1822
1853
2098
2415
2643
2637
2403
2054
1766
1680
1843
2148
2427
2512
2339
2001
1687
1535
1638
1935
2267
2439
2357
2063
1704
1491
1518
1753
2065
2294
2319
2109
1771
1515
1439
1613
1929
2214
2321
2176
1859
1535
1403
1498
1785
2100
2279
2218
1959
1621
1407
1429
1680
2015
2277
2302
2093
1742
1470
1408
1579
1904
2211
2342
2224
1926
1614
1446
1531
1819
2142
2334
2270
2014
1691
1470
1482
1741
2096
2357
2383
2164
1834
1583
1475
1636
1952
2240
2355
2230
1931
1627
1460
1553
1834
2144
2350
2317
2055
1717
1485
1507
1744
2093
2350
2382
2189
1856
1557
1457
1631
1968
2290
2416
2279
1971
1646
1470
1567
1854
2179
2373
2319
2047
1717
1494
1509
1729
2095
2371
2415
2196
1849
1535
1441
1606
1926
2229
2366
2247
1952
1642
1467
1554
1845
2187
2394
2359
2108
1754
1517
1525
1774
2109
2369
2416
2224
1891
1603
1516
1681
2005
2326
2480
2368
2074
1744
1563
1617
1891
2237
2469
2451
2213
1859
1618
1610
1799
2117
2397
2467
2277
1941
1637
1520
1654
1969
2283
2422
2297
1978
1642
1459
1535
1809
2128
2337
2322
2112
1787
1514
1474
1677
2006
2287
2359
2176
1840
1529
1426
1590
1901
2239
2416
2310
1999
1655
1483
1571
1863
2249
2519
2559
2390
2129
1943
1991
2242
2596
2841
2863
2624
2224
1823
1576
1552
1715
1902
1975
1843
1535
1232
1078
1184
1508
1898
2176
2224
2055
1743
1474
1424
1622
1954
2235
2326
2176
1857
1581
1470
1603
1909
2254
2422
2337
2042
1710
1489
1535
1807
2143
2384
2384
2166
1839
1595
1557
1745
2068
2359
2461
2303
1983
1681
1553
1678
1993
2350
2549
2477
2173
1787
1576
1639
1907
2235
2459
2464
2240
1900
1632
1588
1782
2128
2436
2533
2380
2063
1744
1616
1741
2029
2348
2525
2452
2179
1855
1663
1710
1951
2286
2532
2544
2325
2031
1795
1763
1934
2222
2473
2555
2402
2103
1808
1680
1813
2122
2448
2643
2592
2319
1985
1781
1808
2064
2415
2663
2694
2476
2131
1851
1825
2064
2406
2695
2740
2546
2221
1894
1749
1860
2160
2477
2669
2593
2315
1966
1738
1753
1987
2339
2601
2607
2370
2000
1711
1645
1816
2114
2397
2487
2324
1995
1663
1488
1596
1895
2215
2394
2320
2036
1712
1488
1511
1755
2081
2299
2300
2112
1775
1490
1424
1622
1951
2259
2386
2274
1978
1639
1433
1488
1774
2113
2321
2255
1986
1664
1430
1453
1699
2027
2283
2315
2128
1802
1522
1447
1621
1947
2257
2368
2230
1919
1604
1446
1531
1811
2160
2365
2321
2064
1728
1490
1491
1730
2073
2340
2352
2149
1853
1616
1535
1687
2000
2295
2400
2262
1951
1635
1457
1553
1843
2183
2398
2358
2103
1762
1521
1515
1744
2087
2351
2402
2217
1877
1585
1482
1645
1974
2288
2417
2291
1977
1648
1471
1566
1838
2159
2362
2337
2101
1759
1520
1517
1728
2059
2368
2433
2229
1887
1595
1477
1613
1952
2288
2415
2304
2000
1667
1472
1535
1812
2149
2359
2333
2091
1755
1519
1515
1731
2062
2322
2393
2240
1920
1623
1520
1675
1990
2304
2442
2329
2031
1706
1509
1584
1853
2185
2401
2387
2179
1872
1625
1583
1790
2134
2423
2479
2289
1968
1671
1535
1659
1927
2235
2435
2349
2036
1671
1443
1475
1734
2067
2301
2302
2066
1728
1471
1446
1654
1973
2247
2327
2177
1866
1567
1450
1593
1902
2208
2351
2254
1968
1644
1443
1520
1839
2218
2500
2554
2390
2127
1929
1983
2240
2583
2854
2902
2678
2301
1942
1699
1631
1743
1901
1963
1817
1526
1216
1049
1141
1457
1858
2147
2186
2002
1718
1485
1455
1648
1981
2275
2368
2210
1892
1590
1468
1599
1894
2227
2383
2281
2002
1681
1488
1534
1798
2134
2381
2385
2163
1840
1602
1535
1765
2101
2382
2448
2275
1914
1616
1499
1616
1918
2247
2426
2352
2080
1746
1529
1563
1818
2157
2402
2413
2193
1869
1614
1559
1747
2096
2384
2481
2330
2000
1671
1519
1633
1937
2294
2498
2438
2160
1840
1625
1635
1881
2230
2486
2497
2287
1942
1674
1630
1831
2160
2449
2559
2415
2128
1839
1687
1780
2077
2411
2608
2546
2288
1959
1750
1776
2019
2363
2622
2646
2434
2105
1831
1773
1957
2286
2559
2670
2529
2225
1915
1742
1840
2159
2493
2690
2637
2349
1978
1723
1723
1974
2313
2544
2544
2315
1983
1713
1642
1781
2096
2389
2487
2333
2007
1674
1503
1591
1872
2196
2386
2332
2053
1702
1477
1487
1712
2017
2268
2320
2121
1789
1482
1398
1583
1919
2226
2349
2224
1917
1574
1396
1489
1778
2101
2309
2270
2013
1667
1434
1431
1659
1981
2240
2283
2079
1754
1508
1459
1622
1923
2211
2320
2211
1919
1603
1434
1520
1793
2123
2345
2299
2037
1695
1455
1446
1690
2032
2304
2361
2167
1847
1581
1494
1655
1937
2227
2368
2257
1968
1648
1461
1535
1812
2151
2361
2340
2113
1773
1521
1501
1721
2070
2331
2395
2224
1887
1594
1509
1655
1950
2256
2381
2259
1950
1634
1466
1535
1839
2167
2369
2334
2082
1744
1503
1491
1706
2034
2311
2384
2209
1871
1602
1522
1650
1941
2246
2398
2295
1995
1669
1495
1598
1865
2166
2352
2320
2077
1749
1514
1498
1715
2053
2331
2387
2209
1873
1584
1488
1651
1955
2274
2416
2322
2061
1749
1584
1645
1902
2225
2447
2416
2183
1859
1614
1585
1792
2116
2397
2473
2304
1995
1712
1609
1751
2057
2353
2512
2404
2103
1748
1520
1533
1779
2112
2335
2303
2067
1718
1471
1457
1668
1993
2271
2352
2191
1862
1561
1442
1580
1873
2192
2355
2274
1989
1653
1471
1517
1767
2105
2356
2353
2139
1830
1617
1633
1898
2288
2638
2797
2704
2416
2153
2032
2146
2409
2666
2754
2538
2081
1573
1234
1200
1392
1664
1879
1909
1737
1437
1232
1241
1501
1887
2224
2351
2213
1909
1613
1474
1585
1874
2196
2379
2300
2017
1681
1472
1515
1775
2128
2386
2413
2198
1867
1611
1573
1745
2071
2342
2419
2251
1909
1600
1474
1616
1911
2237
2431
2359
2089
1797
1617
1637
1855
2171
2408
2415
2202
1872
1598
1535
1727
2044
2342
2453
2323
2031
1719
1568
1669
1958
2277
2466
2399
2142
1805
1595
1620
1871
2215
2480
2502
2302
1962
1670
1593
1770
2098
2396
2509
2368
2083
1809
1693
1791
2066
2379
2558
2499
2240
1914
1703
1744
1989
2327
2585
2621
2448
2136
1857
1786
1947
2267
2559
2682
2549
2263
1965
1808
1893
2162
2477
2673
2629
2368
2023
1786
1791
2032
2368
2615
2634
2416
2074
1789
1698
1850
2153
2438
2549
2405
2089
1747
1585
1666
1922
2242
2429
2367
2093
1740
1495
1487
1715
2038
2288
2351
2160
1814
1518
1433
1594
1899
2202
2327
2223
1934
1601
1408
1475
1751
2083
2288
2270
2015
1678
1439
1447
1680
2000
2257
2288
2101
1778
1502
1425
1583
1894
2192
2326
2208
1913
1616
1459
1535
1791
2112
2318
2289
2032
1701
1472
1466
1693
2021
2298
2352
2171
1845
1552
1443
1609
1935
2256
2407
2278
1979
1675
1509
1603
1858
2181
2376
2348
2101
1758
1503
1451
1655
2013
2319
2390
2213
1872
1575
1456
1597
1907
2235
2398
2298
2004
1683
1488
1535
1811
2147
2375
2353
2119
1779
1520
1498
1725
2069
2338
2397
2203
1872
1575
1461
1603
1901
2223
2384
2299
1984
1661
1481
1575
1855
2187
2415
2377
2129
1787
1514
1488
1698
2037
2333
2399
2222
1891
1595
1477
1618
1932
2259
2417
2326
2046
1733
1553
1607
1868
2215
2458
2459
2229
1872
1600
1535
1751
2103
2386
2466
2303
1995
1712
1593
1728
2022
2334
2483
2377
2084
1754
1535
1598
1841
2160
2375
2363
2129
1785
1508
1466
1659
1985
2285
2388
2230
1904
1587
1442
1572
1882
2199
2356
2273
1981
1648
1431
1470
1742
2105
2370
2375
2135
1791
1524
1500
1735
2135
2487
2647
2548
2295
2047
1968
2112
2411
2727
2885
2737
2367
1909
1523
1379
1482
1721
1898
1879
1664
1345
1133
1135
1376
1762
2109
2250
2139
1858
1579
1473
1627
1904
2214
2391
2320
2044
1710
1504
1535
1791
2124
2369
2384
2176
1829
1557
1498
1680
2021
2352
2477
2320
1986
1664
1520
1630
1911
2227
2407
2334
2063
1744
1535
1565
1803
2149
2406
2433
2224
1898
1637
1584
1771
2094
2371
2474
2329
2026
1725
1565
1649
1943
2285
2492
2435
2170
1839
1617
1646
1890
2216
2474
2509
2320
1989
1707
1631
1797
2107
2397
2526
2416
2147
1844
1706
1808
2067
2368
2559
2509
2256
1943
1728
1742
1982
2313
2559
2620
2427
2107
1822
1750
1917
2235
2544
2683
2555
2250
1935
1775
1856
2147
2448
2631
2559
2338
2011
1799
1811
2038
2384
2627
2644
2438
2112
1807
1695
1831
2130
2402
2517
2399
2100
1779
1604
1677
1949
2270
2458
2411
2141
1759
1483
1467
1686
2006
2270
2330
2128
1789
1490
1392
1535
1872
2198
2333
2221
1918
1574
1361
1430
1717
2055
2270
2239
1985
1641
1389
1372
1599
1933
2213
2285
2112
1781
1487
1393
1535
1872
2176
2310
2205
1887
1557
1369
1439
1727
2076
2299
2268
2021
1685
1445
1437
1668
2032
2309
2351
2146
1808
1506
1399
1535
1858
2179
2323
2223
1921
1596
1408
1477
1762
2107
2335
2308
2075
1757
1510
1478
1689
2000
2257
2315
2139
1795
1492
1392
1535
1862
2184
2352
2256
1971
1633
1437
1483
1747
2094
2334
2333
2097
1758
1487
1437
1638
1963
2241
2299
2097
1778
1509
1424
1584
1887
2211
2385
2311
2031
1714
1509
1558
1805
2124
2347
2352
2119
1776
1521
1488
1691
2036
2351
2448
2294
1973
1655
1509
1631
1936
2285
2449
2357
2064
1735
1552
1601
1853
2192
2442
2438
2193
1841
1559
1495
1679
1983
2256
2327
2160
1841
1552
1422
1553
1861
2171
2320
2223
1949
1627
1445
1498
1744
2064
2299
2304
2079
1743
1472
1418
1619
1948
2256
2351
2196
1878
1585
1459
1616
1953
2327
2559
2559
2341
2064
1907
1996
2277
2609
2811
2763
2486
2060
1663
1450
1462
1650
1833
1872
1703
1409
1152
1053
1197
1526
1918
2183
2176
1933
1627
1440
1471
1719
2055
2303
2342
2144
1807
1535
1499
1701
2027
2317
2415
2263
1943
1622
1478
1600
1887
2192
2374
2319
2074
1756
1533
1569
1813
2146
2394
2422
2235
1918
1634
1558
1717
2022
2342
2487
2378
2058
1707
1535
1636
1921
2260
2458
2403
2151
1825
1586
1600
1840
2149
2402
2454
2252
1923
1639
1566
1744
2077
2390
2512
2378
2069
1754
1612
1728
2027
2349
2529
2480
2215
1876
1664
1695
1939
2273
2532
2580
2394
2069
1798
1755
1950
2293
2587
2674
2519
2205
1861
1728
1845
2150
2494
2705
2663
2379
2037
1827
1849
2062
2384
2647
2693
2500
2179
1878
1799
1977
2257
2535
2653
2527
2217
1888
1734
1817
2101
2411
2613
2559
2304
1943
1678
1651
1850
2160
2422
2463
2256
1901
1597
1494
1649
1964
2277
2399
2256
1937
1615
1424
1507
1803
2141
2351
2298
2010
1661
1411
1407
1635
1965
2238
2297
2094
1746
1456
1374
1533
1842
2146
2303
2224
1927
1583
1398
1467
1732
2064
2286
2267
2018
1687
1450
1434
1655
2000
2282
2357
2191
1871
1559
1448
1587
1895
2215
2368
2273
1983
1670
1510
1599
1850
2180
2405
2375
2134
1797
1518
1470
1682
2022
2313
2384
2193
1863
1583
1475
1620
1927
2239
2384
2291
2017
1694
1483
1520
1808
2114
2335
2327
2112
1776
1525
1497
1693
2015
2299
2369
2207
1885
1586
1471
1617
1923
2239
2388
2293
2003
1687
1492
1525
1766
2085
2320
2333
2117
1783
1528
1502
1728
2089
2359
2439
2256
1922
1622
1488
1639
1986
2320
2469
2352
2047
1708
1510
1571
1837
2169
2401
2397
2181
1856
1600
1577
1771
2101
2391
2497
2357
2039
1727
1593
1712
2003
2311
2463
2364
2071
1732
1509
1535
1784
2094
2308
2314
2096
1767
1520
1488
1707
2030
2311
2390
2215
1879
1583
1463
1580
1847
2158
2319
2249
1979
1663
1454
1492
1746
2094
2352
2391
2219
1941
1744
1755
1999
2379
2731
2880
2764
2451
2113
1914
1954
2157
2353
2384
2166
1756
1313
1023
1038
1277
1623
1915
1991
1831
1565
1362
1360
1575
1913
2224
2348
2221
1907
1617
1518
1675
1934
2203
2352
2277
2001
1683
1470
1514
1761
2099
2349
2381
2175
1845
1575
1507
1685
2011
2305
2411
2278
1987
1702
1565
1660
1922
2239
2429
2379
2135
1836
1606
1599
1806
2139
2394
2425
2224
1905
1627
1559
1734
2065
2368
2487
2362
2047
1727
1584
1689
1999
2342
2539
2480
2224
1894
1667
1662
1874
2215
2477
2524
2325
1991
1713
1647
1809
2128
2432
2559
2448
2150
1847
1680
1778
2070
2393
2599
2559
2327
2014
1778
1788
2016
2367
2647
2722
2543
2211
1913
1807
1946
2253
2546
2669
2537
2239
1935
1775
1846
2116
2450
2677
2650
2407
2085
1839
1825
2035
2353
2596
2619
2413
2073
1776
1669
1823
2127
2414
2517
2374
2047
1712
1535
1617
1904
2242
2446
2382
2116
1775
1520
1495
1714
2037
2291
2345
2143
1794
1487
1383
1556
1884
2192
2326
2234
1942
1611
1427
1483
1767
2110
2338
2307
2047
1703
1442
1424
1648
1984
2261
2333
2165
1840
1535
1446
1577
1879
2208
2369
2250
1935
1614
1437
1520
1808
2138
2356
2345
2114
1776
1521
1488
1705
2023
2304
2365
2177
1836
1535
1440
1609
1929
2255
2409
2301
1990
1649
1463
1555
1835
2159
2381
2379
2147
1809
1526
1490
1700
2000
2262
2346
2192
1873
1579
1456
1584
1885
2210
2382
2307
2022
1696
1494
1534
1791
2127
2368
2368
2147
1807
1530
1485
1686
2005
2269
2352
2202
1886
1587
1459
1597
1907
2229
2405
2335
2057
1703
1488
1530
1782
2122
2373
2401
2189
1869
1603
1534
1735
2060
2329
2416
2262
1957
1664
1535
1658
1953
2283
2461
2389
2130
1805
1607
1674
1927
2230
2446
2437
2210
1871
1584
1522
1702
2014
2293
2384
2227
1905
1591
1455
1589
1907
2215
2372
2289
2001
1679
1452
1472
1712
2031
2260
2286
2096
1781
1519
1456
1632
1950
2239
2343
2205
1899
1585
1467
1649
1988
2352
2587
2595
2389
2141
1995
2073
2299
2608
2825
2797
2506
2087
1659
1427
1464
1680
1882
1925
1763
1457
1182
1072
1217
1574
1959
2210
2193
1967
1677
1471
1491
1739
2090
2345
2354
2142
1808
1535
1477
1661
1986
2292
2415
2293
1971
1639
1473
1585
1875
2210
2409
2363
2099
1754
1561
1615
1845
2170
2395
2411
2183
1830
1563
1518
1714
2026
2318
2424
2288
1981
1665
1511
1623
1920
2238
2434
2387
2135
1809
1586
1616
1866
2195
2446
2482
2278
1939
1663
1579
1745
2067
2347
2480
2359
2053
1740
1583
1671
1974
2315
2521
2487
2273
1935
1680
1677
1895
2204
2461
2512
2351
2033
1757
1679
1840
2142
2445
2605
2493
2207
1899
1731
1831
2123
2440
2647
2607
2357
2026
1795
1791
2027
2374
2619
2639
2435
2105
1833
1749
1909
2217
2499
2627
2506
2203
1867
1711
1810
2095
2401
2579
2515
2238
1856
1588
1577
1791
2128
2389
2416
2211
1859
1531
1414
1570
1890
2209
2375
2261
1934
1582
1382
1456
1742
2095
2310
2272
2021
1696
1441
1413
1627
1962
2217
2259
2069
1744
1476
1398
1570
1869
2154
2288
2183
1890
1535
1382
1489
1760
2063
2268
2259
2033
1702
1446
1409
1617
1945
2214
2287
2115
1799
1513
1414
1558
1857
2160
2306
2222
1940
1632
1447
1515
1773
2095
2311
2290
2047
1715
1469
1455
1664
1987
2259
2344
2211
1898
1570
1453
1597
1887
2188
2329
2213
1925
1610
1411
1456
1712
2053
2314
2313
2091
1751
1488
1465
1684
2001
2259
2320
2160
1840
1535
1424
1564
1861
2167
2325
2240
1959
1643
1429
1481
1743
2078
2306
2314
2113
1782
1515
1488
1707
2019
2270
2325
2156
1855
1557
1438
1587
1908
2256
2435
2361
2090
1762
1557
1587
1825
2148
2399
2419
2199
1871
1606
1558
1747
2079
2365
2453
2305
2000
1705
1535
1659
1935
2238
2400
2305
2015
1680
1456
1482
1740
2064
2294
2300
2077
1744
1482
1424
1611
1929
2240
2352
2218
1904
1586
1423
1507
1797
2127
2317
2252
1974
1634
1402
1445
1711
2083
2371
2433
2278
2000
1796
1807
2064
2452
2806
2947
2799
2444
2083
1852
1855
2005
2173
2204
2017
1647
1253
995
1003
1267
1643
1960
2064
1929
1659
1427
1415
1618
1937
2240
2345
2206
1902
1591
1430
1535
1874
2212
2395
2337
2073
1733
1495
1507
1751
2094
2351
2387
2182
1835
1535
1472
1659
2002
2318
2448
2297
1973
1648
1490
1611
1904
2223
2414
2358
2096
1767
1535
1563
1794
2124
2375
2403
2197
1872
1593
1493
1661
1984
2300
2443
2337
2032
1722
1567
1667
1965
2298
2486
2431
2175
1844
1604
1615
1849
2184
2459
2507
2324
1994
1712
1630
1787
2096
2394
2533
2414
2115
1808
1648
1744
2027
2368
2586
2558
2314
1987
1770
1779
2003
2346
2633
2681
2483
2173
1887
1779
1935
2255
2559
2711
2601
2276
1943
1763
1837
2096
2416
2623
2599
2355
2026
1790
1766
1969
2290
2548
2605
2414
2072
1748
1618
1749
2053
2349
2495
2385
2075
1725
1517
1583
1844
2175
2389
2368
2130
1776
1497
1473
1686
2031
2301
2350
2176
1840
1525
1408
1535
1858
2171
2311
2202
1907
1585
1401
1465
1738
2064
2295
2287
2053
1710
1436
1408
1622
1960
2239
2311
2147
1822
1520
1403
1535
1853
2186
2341
2247
1964
1633
1441
1486
1734
2065
2282
2281
2067
1737
1476
1447
1654
1973
2263
2349
2176
1863
1535
1418
1535
1875
2221
2395
2338
2041
1680
1441
1462
1717
2047
2283
2278
2063
1729
1472
1429
1649
1994
2283
2352
2190
1866
1561
1442
1584
1885
2201
2367
2288
1998
1669
1470
1509
1785
2129
2354
2336
2101
1769
1506
1467
1670
2015
2310
2385
2218
1904
1631
1509
1616
1872
2192
2371
2294
2001
1680
1476
1513
1773
2095
2317
2321
2107
1787
1524
1487
1691
2031
2323
2431
2289
1983
1686
1556
1671
1965
2271
2436
2349
2091
1776
1585
1642
1885
2218
2463
2490
2272
1930
1661
1589
1770
2088
2367
2447
2285
1959
1647
1495
1612
1907
2234
2398
2305
2017
1689
1468
1485
1722
2032
2287
2322
2119
1790
1503
1444
1625
1949
2247
2359
2227
1936
1638
1472
1578
1860
2189
2404
2375
2147
1870
1728
1813
2128
2514
2821
2918
2767
2444
2133
1998
2093
2298
2438
2357
2053
1603
1216
1030
1104
1385
1741
1973
1963
1746
1485
1360
1447
1729
2069
2320
2337
2122
1803
1561
1503
1680
1999
2287
2398
2263
1966
1661
1520
1626
1904
2228
2419
2366
2106
1774
1535
1557
1791
2119
2389
2453
2247
1893
1613
1556
1742
2046
2338
2445
2321
2055
1759
1616
1727
2003
2303
2466
2405
2148
1829
1607
1619
1845
2179
2431
2463
2300
2021
1783
1715
1887
2183
2451
2559
2439
2153
1843
1699
1815
2112
2438
2651
2624
2399
2096
1879
1872
2087
2390
2639
2670
2478
2176
1910
1840
2007
2317
2608
2737
2625
2337
2044
1901
1988
2247
2545
2755
2720
2492
2197
1971
1934
2134
2459
2710
2755
2585
2286
1996
1872
1985
2258
2530
2641
2525
2237
1937
1789
1885
2149
2448
2615
2534
2270
1943
1713
1697
1902
2194
2430
2478
2319
1997
1699
1585
1693
1941
2226
2341
2223
1936
1627
1442
1506
1775
2085
2257
2219
1985
1680
1446
1442
1655
1962
2199
2233
2047
1756
1506
1417
1575
1854
2145
2256
2126
1831
1518
1349
1427
1691
2012
2222
2191
1969
1668
1456
1456
1677
1990
2224
2255
2075
1774
1535
1455
1593
1878
2155
2272
2151
1872
1586
1424
1494
1751
2063
2256
2237
2000
1681
1456
1451
1678
1997
2226
2254
2071
1761
1490
1406
1535
1809
2109
2246
2160
1901
1603
1427
1482
1741
2046
2255
2254
2043
1727
1485
1439
1616
1921
2193
2270
2107
1808
1535
1431
1558
1827
2118
2277
2213
1958
1653
1461
1509
1747
2062
2272
2273
2066
1755
1513
1482
1663
1959
2217
2287
2130
1842
1535
1413
1503
1776
2096
2263
2185
1919
1613
1429
1472
1709
2026
2261
2273
2067
1751
1505
1457
1650
1965
2250
2353
2247
1984
1713
1583
1680
1935
2195
2331
2239
1965
1657
1462
1511
1765
2075
2308
2324
2123
1812
1574
1533
1698
1985
2261
2383
2256
1936
1626
1450
1515
1775
2064
2242
2187
1936
1633
1431
1456
1674
1970
2202
2221
2022
1721
1472
1424
1588
1890
2187
2305
2200
1907
1600
1459
1582
1826
2118
2308
2259
2046
1776
1631
1713
2003
2385
2694
2794
2640
2351
2075
1957
2060
2249
2371
2320
2077
1681
1267
1031
1074
1354
1680
1913
1923
1746
1504
1341
1381
1647
1982
2256
2303
2122
1813
1569
1513
1686
1991
2272
2362
2236
1948
1651
1505
1600
1875
2193
2375
2326
2079
1770
1535
1568
1789
2101
2328
2370
2210
1913
1650
1575
1727
2023
2305
2427
2304
2032
1773
1616
1697
1968
2277
2450
2391
2157
1856
1663
1665
1882
2190
2416
2439
2268
1966
1701
1625
1776
2071
2352
2480
2368
2113
1862
1734
1808
2037
2317
2506
2495
2285
1957
1729
1728
1948
2275
2499
2513
2334
2046
1806
1750
1904
2202
2464
2603
2481
2209
1919
1790
1887
2150
2435
2624
2581
2351
2064
1879
1909
2123
2413
2631
2667
2480
2178
1933
1858
2002
2293
2559
2693
2559
2288
1985
1809
1890
2167
2470
2637
2559
2325
2002
1783
1759
1931
2204
2427
2485
2314
1993
1719
1615
1743
2003
2267
2379
2271
1994
1707
1535
1616
1854
2146
2324
2279
2062
1755
1535
1518
1710
2005
2230
2261
2104
1809
1556
1474
1615
1878
2146
2253
2136
1875
1605
1468
1554
1809
2115
2309
2295
2083
1771
1535
1520
1714
2011
2256
2311
2137
1838
1587
1509
1631
1909
2203
2337
2235
1968
1669
1494
1562
1807
2097
2298
2303
2096
1797
1581
1552
1747
2046
2285
2345
2191
1904
1648
1563
1688
1952
2209
2352
2288
2023
1742
1565
1610
1839
2130
2320
2305
2109
1810
1595
1584
1761
2039
2277
2333
2175
1884
1631
1535
1680
1950
2224
2347
2263
2023
1741
1565
1600
1818
2097
2288
2283
2083
1794
1581
1535
1711
2006
2263
2345
2223
1939
1665
1555
1662
1918
2186
2332
2259
2021
1759
1606
1654
1890
2192
2389
2377
2176
1888
1680
1631
1806
2114
2368
2432
2293
2000
1719
1607
1726
2000
2291
2451
2383
2139
1837
1648
1687
1907
2192
2385
2373
2159
1841
1581
1511
1693
1989
2253
2352
2225
1958
1677
1535
1625
1882
2171
2320
2251
1990
1698
1495
1529
1808
2177
2416
2384
2159
1839
1575
1507
1683
1998
2310
2446
2367
2138
1924
1868
2026
2351
2699
2912
2846
2559
2224
1974
1919
1975
2059
2096
1979
1693
1346
1093
1056
1242
1579
1923
2094
2007
1771
1520
1424
1555
1840
2139
2331
2286
2065
1783
1579
1583
1808
2130
2355
2371
2180
1874
1637
1585
1743
2011
2273
2371
2258
1995
1725
1600
1697
1957
2249
2427
2359
2107
1797
1599
1621
1835
2123
2347
2371
2191
1882
1647
1616
1802
2098
2348
2441
2320
2039
1757
1616
1712
1968
2257
2432
2385
2150
1851
1648
1671
1893
2209
2444
2474
2303
2011
1763
1680
1811
2107
2416
2594
2507
2201
1869
1680
1735
1985
2307
2512
2483
2268
1975
1773
1782
1986
2306
2559
2640
2475
2143
1864
1782
1942
2257
2542
2669
2559
2288
2015
1872
1945
2198
2495
2685
2663
2430
2122
1904
1913
2119
2413
2657
2725
2545
2242
1993
1875
1984
2253
2512
2630
2512
2230
1931
1755
1808
2053
2333
2494
2447
2243
1942
1703
1680
1853
2115
2320
2355
2171
1860
1600
1516
1649
1920
2199
2337
2240
1986
1685
1492
1535
1795
2114
2332
2306
2087
1771
1535
1504
1669
1955
2219
2288
2128
1831
1571
1472
1615
1903
2182
2308
2219
1972
1705
1569
1677
1932
2189
2341
2275
2019
1702
1488
1481
1671
1978
2256
2323
2182
1895
1629
1525
1650
1931
2219
2361
2284
2027
1741
1564
1609
1841
2133
2331
2335
2139
1840
1618
1587
1755
2045
2314
2408
2256
1971
1711
1598
1687
1936
2204
2349
2261
2006
1712
1529
1570
1794
2096
2311
2315
2113
1801
1568
1535
1723
2023
2304
2415
2288
1990
1686
1556
1648
1898
2191
2352
2269
2002
1703
1517
1558
1795
2109
2342
2378
2193
1873
1598
1535
1712
1995
2277
2380
2249
1971
1685
1522
1649
1917
2199
2362
2293
2061
1778
1584
1643
1873
2190
2410
2427
2238
1942
1713
1689
1877
2176
2437
2507
2350
2047
1762
1635
1758
2065
2366
2507
2450
2218
1911
1717
1750
1979
2273
2490
2511
2309
1997
1729
1655
1808
2098
2367
2464
2335
2045
1755
1611
1709
1972
2274
2443
2387
2157
1856
1662
1676
1888
2196
2433
2470
2283
1971
1716
1671
1840
2127
2363
2438
2302
2031
1775
1673
1807
2139
2507
2791
2822
2647
2387
2224
2247
2421
2650
2823
2787
2481
2015
1600
1392
1427
1634
1867
1968
1871
1649
1413
1331
1468
1775
2119
2340
2335
2129
1847
1654
1676
1875
2175
2398
2437
2267
1968
1731
1667
1811
2093
2359
2479
2361
2096
1808
1658
1744
2002
2303
2480
2451
2239
1953
1767
1767
1926
2186
2429
2479
2306
2019
1792
1713
1858
2149
2432
2546
2427
2162
1872
1718
1797
2059
2349
2535
2499
2267
1970
1773
1788
1991
2304
2551
2607
2434
2168
1929
1841
1951
2195
2471
2619
2514
2255
1968
1830
1917
2177
2464
2651
2624
2422
2161
1971
1970
2174
2466
2715
2767
2625
2353
2102
1997
2133
2417
2707
2837
2688
2385
2113
1951
2022
2266
2551
2745
2721
2500
2210
2007
1986
2171
2454
2691
2739
2581
2301
2033
1927
2038
2326
2598
2703
2589
2317
2018
1839
1869
2092
2369
2549
2519
2288
1975
1757
1726
1918
2218
2442
2463
2271
1936
1646
1532
1660
1930
2188
2299
2211
1977
1701
1520
1567
1791
2079
2256
2251
2043
1738
1507
1474
1653
1936
2191
2259
2114
1840
1591
1482
1613
1862
2127
2259
2178
1921
1638
1473
1504
1734
2029
2249
2235
2031
1729
1502
1488
1692
1984
2215
2256
2099
1813
1575
1472
1588
1856
2130
2282
2213
1982
1692
1516
1535
1767
2061
2250
2238
2032
1751
1533
1506
1673
1941
2187
2262
2127
1843
1569
1456
1599
1855
2128
2277
2214
1968
1659
1466
1522
1744
2029
2240
2265
2091
1791
1533
1482
1668
1958
2197
2272
2146
1858
1584
1478
1613
1888
2158
2274
2192
1941
1651
1487
1535
1781
2071
2253
2245
2058
1776
1535
1490
1679
1998
2247
2302
2158
1876
1609
1475
1582
1839
2119
2283
2227
1996
1701
1505
1531
1757
2047
2265
2280
2087
1798
1586
1535
1695
1986
2250
2349
2225
1958
1680
1535
1653
1945
2241
2395
2330
2095
1790
1581
1603
1805
2082
2285
2300
2119
1843
1628
1566
1729
2021
2309
2421
2302
2018
1711
1535
1648
1904
2188
2343
2271
2015
1707
1487
1456
1644
1927
2166
2227
2065
1756
1482
1408
1574
1855
2115
2237
2130
1842
1526
1362
1450
1715
2019
2220
2191
1959
1652
1437
1443
1681
2043
2356
2462
2347
2112
1909
1892
2104
2411
2686
2783
2625
2285
1895
1607
1519
1629
1798
1899
1792
1535
1289
1104
1103
1357
1714
2002
2105
1965
1689
1440
1360
1527
1856
2195
2339
2224
1927
1599
1407
1467
1726
2036
2245
2217
1987
1667
1424
1409
1619
1947
2235
2304
2129
1810
1525
1419
1564
1874
2198
2364
2263
1980
1651
1453
1520
1793
2111
2335
2368
2164
1797
1520
1489
1689
2007
2287
2370
2219
1874
1565
1469
1626
1936
2256
2412
2315
2013
1694
1499
1535
1811
2134
2354
2346
2112
1808
1595
1589
1787
2118
2397
2469
2322
2019
1745
1646
1790
2102
2401
2544
2448
2180
1875
1723
1805
2071
2378
2586
2559
2352
2044
1822
1799
1985
2290
2544
2624
2480
2188
1906
1793
1936
2239
2526
2682
2597
2320
2004
1821
1870
2110
2413
2627
2621
2393
2074
1811
1746
1912
2219
2471
2521
2351
2047
1773
1664
1780
2013
2265
2407
2309
2033
1744
1573
1619
1851
2128
2294
2269
2047
1744
1506
1460
1619
1915
2189
2265
2114
1815
1535
1437
1535
1808
2085
2244
2191
1957
1645
1426
1458
1681
1975
2206
2224
2023
1723
1483
1437
1623
1937
2206
2304
2171
1894
1625
1494
1609
1875
2190
2361
2305
2074
1786
1591
1617
1836
2127
2337
2345
2145
1840
1613
1574
1745
2033
2286
2382
2251
1969
1701
1601
1707
1942
2213
2372
2320
2098
1808
1625
1643
1819
2090
2299
2306
2101
1800
1569
1520
1709
2001
2270
2362
2214
1939
1671
1559
1661
1922
2213
2374
2335
2102
1810
1616
1616
1805
2094
2311
2338
2146
1847
1600
1535
1714
2000
2261
2363
2226
1952
1679
1553
1654
1914
2198
2371
2313
2079
1764
1567
1587
1787
2079
2295
2332
2155
1858
1610
1535
1718
1997
2270
2384
2283
1995
1711
1559
1648
1903
2203
2383
2321
2087
1791
1595
1599
1793
2096
2324
2380
2223
1934
1674
1612
1733
1995
2297
2448
2342
2054
1745
1579
1649
1879
2181
2368
2341
2105
1777
1535
1525
1725
2017
2275
2327
2173
1863
1589
1494
1635
1916
2189
2302
2194
1917
1617
1467
1571
1843
2160
2368
2342
2112
1776
1535
1535
1748
2068
2338
2414
2270
1971
1729
1677
1786
2062
2358
2496
2368
2077
1759
1589
1678
1993
2378
2653
2690
2512
2274
2097
2101
2311
2640
2902
2929
2688
2298
1902
1642
1611
1749
1930
1999
1875
1616
1318
1157
1261
1589
1981
2261
2303
2103
1808
1599
1582
1767
2097
2379
2455
2298
1985
1697
1584
1709
1991
2298
2453
2387
2139
1826
1621
1648
1874
2187
2426
2446
2244
1936
1665
1621
1799
2105
2382
2477
2340
2034
1727
1586
1699
1984
2299
2467
2403
2154
1845
1651
1670
1891
2209
2474
2486
2271
1953
1699
1647
1829
2146
2402
2480
2341
2045
1755
1614
1732
2032
2355
2529
2459
2199
1882
1690
1726
1951
2261
2521
2554
2340
2015
1744
1678
1853
2187
2477
2582
2427
2132
1852
1725
1840
2130
2451
2651
2597
2343
2030
1813
1840
2079
2387
2629
2655
2464
2145
1874
1805
1965
2288
2597
2700
2557
2256
1963
1810
1906
2186
2490
2656
2587
2303
1978
1781
1795
2005
2324
2549
2551
2335
1999
1709
1613
1756
2045
2325
2432
2295
1985
1674
1502
1583
1847
2163
2354
2320
2058
1709
1463
1456
1679
1986
2221
2244
2071
1776
1506
1408
1562
1865
2171
2299
2178
1874
1565
1409
1483
1750
2064
2252
2214
1966
1643
1396
1391
1616
1951
2222
2271
2094
1781
1489
1403
1554
1853
2162
2307
2195
1903
1584
1418
1501
1769
2081
2307
2301
2075
1739
1493
1471
1682
2005
2299
2365
2167
1840
1531
1409
1535
1843
2151
2305
2206
1914
1606
1423
1491
1758
2086
2301
2271
2039
1734
1509
1482
1674
1985
2267
2342
2171
1854
1566
1459
1603
1905
2201
2323
2229
1963
1648
1475
1611
1910
2207
2363
2288
2031
1703
1455
1424
1633
1962
2240
2315
2150
1845
1558
1457
1616
1939
2256
2377
2253
1946
1630
1440
1505
1776
2107
2311
2297
2070
1739
1490
1473
1680
2011
2298
2381
2225
1919
1643
1520
1636
1921
2239
2401
2301
2014
1703
1519
1573
1826
2154
2398
2413
2190
1856
1610
1585
1767
2080
2363
2439
2285
1982
1697
1584
1708
1983
2285
2429
2331
2060
1747
1553
1588
1826
2129
2338
2320
2092
1751
1479
1429
1613
1935
2240
2335
2169
1840
1535
1419
1552
1857
2175
2334
2256
1988
1663
1456
1503
1760
2070
2288
2287
2071
1742
1489
1482
1712
2075
2407
2559
2466
2224
1991
1937
2110
2414
2699
2838
2719
2384
1962
1606
1460
1535
1741
1866
1811
1583
1274
1042
1037
1275
1662
2010
2171
2095
1822
1535
1439
1584
1872
2185
2361
2285
2022
1712
1501
1525
1773
2103
2339
2363
2168
1844
1584
1515
1683
1975
2270
2382
2247
1950
1666
1531
1648
1936
2258
2438
2359
2075
1739
1519
1574
1843
2178
2417
2426
2195
1871
1607
1535
1710
2027
2334
2446
2289
1964
1673
1535
1665
1949
2262
2465
2427
2171
1841
1629
1637
1866
2219
2469
2481
2261
1923
1648
1595
1782
2117
2423
2559
2461
2151
1808
1614
1691
1968
2289
2480
2443
2213
1906
1698
1721
1952
2283
2558
2659
2479
2128
1833
1747
1926
2235
2518
2637
2498
2220
1918
1771
1868
2150
2458
2649
2623
2383
2079
1850
1834
2047
2367
2640
2695
2483
2125
1808
1712
1852
2153
2442
2547
2415
2112
1792
1611
1683
1937
2253
2449
2408
2149
1794
1575
1562
1741
2029
2278
2361
2179
1835
1523
1420
1574
1889
2205
2323
2194
1894
1595
1424
1498
1735
2019
2225
2208
1971
1655
1425
1427
1643
1963
2217
2258
2096
1792
1503
1392
1519
1823
2133
2277
2175
1891
1597
1402
1481
1758
2093
2292
2255
2001
1680
1449
1434
1635
1952
2229
2306
2139
1840
1579
1477
1603
1892
2202
2341
2237
1953
1639
1463
1535
1792
2106
2332
2327
2086
1752
1513
1498
1694
1999
2259
2324
2166
1856
1574
1475
1613
1912
2211
2370
2279
1984
1666
1474
1502
1761
2099
2313
2288
2059
1740
1507
1485
1680
1985
2263
2356
2208
1902
1612
1474
1599
1891
2215
2386
2298
2011
1687
1495
1535
1808
2143
2374
2359
2128
1807
1569
1535
1751
2070
2318
2383
2234
1951
1684
1559
1680
1983
2277
2438
2383
2137
1817
1600
1621
1853
2161
2395
2412
2212
1899
1650
1603
1781
2101
2362
2443
2283
1964
1661
1518
1619
1888
2178
2334
2257
1991
1680
1473
1509
1749
2085
2343
2384
2179
1829
1535
1480
1663
1984
2270
2356
2206
1901
1589
1433
1529
1838
2174
2368
2320
2083
1808
1646
1737
2035
2423
2707
2784
2626
2333
2083
1997
2109
2343
2545
2537
2249
1782
1358
1137
1163
1386
1678
1875
1859
1648
1385
1232
1314
1606
1969
2246
2304
2139
1845
1584
1510
1680
1990
2304
2455
2313
1973
1645
1490
1611
1883
2192
2378
2322
2067
1744
1532
1559
1782
2121
2373
2416
2224
1903
1639
1562
1728
2039
2334
2447
2323
2032
1728
1597
1682
1946
2261
2448
2384
2140
1811
1599
1613
1840
2163
2419
2462
2279
1978
1697
1625
1792
2078
2351
2493
2389
2100
1797
1633
1693
1954
2287
2515
2514
2281
1955
1712
1693
1893
2224
2496
2559
2394
2079
1807
1718
1875
2182
2481
2622
2495
2211
1911
1756
1837
2115
2442
2664
2639
2393
2065
1841
1842
2059
2383
2659
2710
2525
2227
1961
1865
2029
2321
2607
2711
2599
2298
1990
1819
1879
2146
2455
2671
2631
2379
2035
1793
1783
1969
2261
2498
2549
2367
2031
1728
1595
1710
1984
2277
2406
2293
1996
1682
1504
1567
1810
2128
2334
2307
2077
1742
1492
1455
1634
1935
2198
2267
2106
1799
1517
1412
1555
1871
2182
2320
2229
1952
1643
1443
1502
1769
2082
2294
2281
2045
1724
1494
1478
1662
1943
2211
2290
2137
1829
1525
1403
1535
1850
2159
2311
2234
1961
1648
1456
1509
1769
2092
2309
2304
2095
1769
1507
1494
1697
2000
2294
2389
2217
1881
1607
1506
1627
1899
2198
2352
2259
1986
1677
1487
1535
1798
2112
2331
2345
2128
1805
1555
1517
1712
2023
2293
2384
2229
1904
1603
1472
1600
1901
2210
2371
2295
2018
1706
1497
1535
1792
2119
2347
2352
2142
1815
1567
1525
1730
2029
2298
2383
2235
1925
1629
1479
1590
1875
2197
2369
2303
2046
1718
1497
1518
1757
2096
2351
2375
2179
1863
1632
1598
1775
2087
2361
2451
2317
2005
1692
1534
1643
1922
2240
2419
2350
2086
1761
1568
1631
1899
2224
2455
2447
2209
1857
1594
1519
1687
1999
2288
2368
2217
1913
1610
1467
1583
1857
2164
2335
2262
1996
1676
1469
1499
1726
2041
2275
2288
2110
1792
1523
1457
1619
1919
2204
2317
2207
1913
1646
1535
1679
1984
2346
2586
2589
2385
2124
1950
2021
2303
2640
2862
2859
2608
2213
1811
1558
1527
1659
1827
1883
1727
1431
1170
1066
1216
1559
1934
2208
2221
1991
1702
1485
1495
1726
2061
2306
2341
2157
1843
1571
1489
1669
1971
2258
2387
2270
1979
1672
1519
1602
1872
2215
2427
2371
2118
1778
1529
1523
1742
2057
2307
2355
2179
1875
1613
1523
1680
1984
2294
2439
2327
2035
1733
1570
1641
1903
2203
2391
2370
2147
1827
1601
1605
1826
2151
2413
2465
2297
1987
1710
1619
1765
2061
2336
2461
2365
2107
1808
1642
1727
1982
2286
2491
2471
2230
1907
1694
1681
1887
2192
2443
2519
2366
2069
1782
1693
1830
2119
2432
2608
2522
2245
1938
1778
1849
2112
2445
2657
2633
2418
2114
1859
1825
2013
2318
2559
2647
2479
2192
1917
1810
1936
2223
2523
2683
2582
2302
1975
1789
1840
2064
2334
2515
2481
2241
1907
1647
1607
1803
2121
2377
2421
2236
1922
1647
1553
1693
1970
2256
2382
2227
1901
1574
1393
1475
1733
2042
2270
2265
2047
1733
1488
1434
1605
1925
2202
2271
2121
1827
1535
1438
1567
1866
2167
2301
2192
1919
1600
1401
1441
1696
2025
2255
2263
2058
1741
1509
1488
1667
1970
2238
2307
2151
1821
1507
1392
1513
1813
2131
2299
2223
1958
1647
1453
1489
1735
2047
2273
2297
2107
1808
1587
1567
1723
1989
2229
2304
2173
1871
1583
1443
1561
1839
2135
2321
2256
2000
1693
1490
1521
1756
2065
2303
2327
2119
1793
1535
1500
1666
1957
2243
2335
2192
1904
1645
1535
1657
1916
2191
2331
2255
1999
1680
1475
1519
1763
2083
2309
2326
2126
1804
1535
1485
1655
1969
2277
2389
2251
1941
1657
1527
1641
1915
2223
2396
2330
2074
1744
1511
1515
1770
2103
2362
2398
2214
1889
1617
1535
1737
2054
2329
2427
2299
2032
1759
1630
1728
1997
2289
2448
2371
2100
1779
1575
1583
1791
2096
2323
2346
2157
1825
1535
1455
1615
1911
2227
2368
2215
1904
1598
1437
1535
1831
2161
2343
2298
2039
1689
1437
1409
1636
1968
2243
2306
2131
1823
1555
1496
1686
2032
2381
2559
2512
2295
2071
1988
2139
2427
2727
2885
2779
2450
2047
1708
1535
1587
1753
1907
1882
1661
1351
1132
1098
1306
1671
2027
2208
2135
1878
1595
1437
1517
1794
2131
2347
2332
2106
1783
1535
1535
1736
2053
2293
2335
2176
1878
1623
1535
1703
2000
2285
2401
2288
2000
1690
1521
1597
1855
2163
2377
2359
2138
1811
1581
1586
1789
2102
2354
2402
2224
1907
1643
1563
1712
2011
2305
2434
2333
2071
1772
1600
1653
1911
2224
2452
2462
2242
1909
1667
1639
1815
2127
2398
2475
2314
2007
1741
1648
1773
2058
2359
2523
2447
2182
1872
1690
1739
1983
2295
2512
2501
2301
1999
1764
1733
1927
2255
2527
2610
2453
2160
1877
1777
1906
2203
2506
2672
2590
2322
1997
1789
1821
2066
2400
2664
2690
2484
2155
1874
1802
1982
2315
2587
2643
2467
2159
1866
1763
1887
2155
2416
2544
2451
2174
1833
1621
1656
1894
2203
2416
2427
2212
1885
1616
1584
1762
2034
2275
2349
2177
1875
1591
1467
1582
1856
2157
2305
2223
1953
1653
1442
1481
1734
2046
2261
2269
2085
1788
1520
1461
1638
1932
2215
2327
2192
1877
1574
1437
1552
1837
2162
2330
2251
1979
1664
1453
1485
1749
2075
2295
2289
2081
1773
1521
1473
1648
1963
2237
2333
2194
1884
1582
1447
1566
1840
2157
2367
2320
2052
1708
1499
1535
1763
2059
2287
2305
2107
1787
1510
1447
1625
1953
2242
2367
2256
1973
1664
1520
1613
1878
2180
2341
2264
2027
1730
1517
1514
1738
2066
2303
2325
2133
1826
1557
1487
1654
1959
2243
2366
2257
1983
1670
1487
1572
1847
2175
2362
2320
2070
1723
1487
1488
1707
2009
2269
2337
2190
1893
1622
1533
1683
1983
2278
2410
2297
1999
1687
1531
1636
1917
2236
2423
2383
2127
1785
1569
1591
1809
2131
2391
2461
2289
1983
1693
1603
1744
2032
2326
2451
2339
2037
1709
1520
1607
1855
2143
2322
2298
2069
1735
1483
1457
1662
1985
2243
2292
2123
1808
1525
1443
1597
1903
2218
2369
2283
1994
1679
1490
1575
1830
2135
2317
2282
2047
1763
1593
1638
1903
2288
2617
2743
2653
2422
2187
2091
2192
2443
2672
2704
2448
1982
1483
1153
1099
1307
1647
1889
1895
1698
1426
1264
1312
1565
1909
2192
2279
2138
1840
1584
1472
1605
1895
2193
2334
2240
1978
1680
1513
1591
1857
2160
2367
2355
2135
1811
1569
1572
1765
2065
2318
2368
2194
1877
1605
1497
1643
1934
2238
2402
2343
2087
1774
1577
1613
1853
2165
2389
2391
2177
1856
1607
1586
1808
2129
2416
2493
2293
1939
1633
1533
1687
1983
2298
2445
2363
2096
1785
1600
1663
1925
2268
2498
2491
2277
1954
1694
1636
1819
2160
2454
2559
2407
2095
1797
1680
1801
2091
2384
2554
2490
2253
1959
1763
1808
2041
2358
2602
2617
2417
2128
1873
1831
2021
2322
2587
2671
2535
2271
1985
1841
1941
2192
2477
2642
2581
2326
2011
1806
1835
2061
2363
2599
2611
2395
2064
1793
1730
1885
2183
2437
2515
2361
2057
1751
1606
1687
1942
2228
2380
2301
2035
1727
1535
1557
1769
2060
2277
2288
2108
1801
1524
1457
1647
1946
2205
2291
2149
1838
1533
1381
1475
1750
2055
2240
2179
1933
1648
1443
1469
1698
2000
2239
2256
2057
1744
1479
1409
1582
1886
2177
2288
2154
1850
1535
1408
1515
1803
2112
2287
2235
1974
1664
1445
1443
1674
2006
2272
2307
2131
1838
1535
1459
1631
1919
2203
2317
2183
1867
1557
1407
1509
1798
2127
2314
2275
2032
1698
1457
1459
1682
2006
2275
2314
2134
1818
1535
1443
1600
1917
2219
2334
2221
1941
1631
1455
1534
1801
2103
2293
2270
2039
1717
1466
1454
1675
2001
2267
2334
2165
1846
1568
1467
1623
1936
2238
2374
2256
1966
1649
1475
1558
1829
2154
2349
2311
2092
1763
1523
1523
1734
2076
2379
2473
2300
1951
1641
1535
1674
1968
2277
2417
2320
2034
1733
1566
1638
1901
2211
2409
2368
2133
1809
1535
1505
1710
2039
2300
2347
2162
1840
1535
1441
1584
1877
2176
2319
2224
1947
1648
1473
1535
1777
2089
2315
2303
2059
1744
1513
1483
1679
1982
2256
2339
2183
1872
1584
1485
1655
1997
2375
2609
2588
2367
2114
1970
2061
2302
2602
2771
2703
2411
1979
1561
1347
1398
1610
1810
1856
1712
1424
1169
1107
1290
1646
2022
2243
2197
1969
1681
1517
1584
1817
2119
2322
2315
2106
1794
1553
1522
1720
2032
2305
2390
2259
1968
1669
1535
1663
1939
2229
2366
2286
2022
1711
1523
1578
1827
2150
2371
2376
2163
1859
1657
1653
1842
2122
2334
2397
2243
1937
1659
1535
1680
1962
2265
2423
2358
2094
1782
1584
1614
1850
2162
2407
2448
2271
1971
1707
1646
1811
2118
2415
2527
2369
2047
1756
1614
1718
2001
2323
2515
2471
2225
1919
1719
1737
1965
2282
2503
2528
2340
2017
1765
1718
1906
2240
2525
2629
2495
2218
1919
1774
1866
2130
2432
2641
2613
2363
2054
1855
1872
2088
2382
2608
2629
2448
2158
1887
1804
1947
2240
2525
2670
2547
2241
1922
1760
1823
2063
2348
2515
2448
2179
1847
1628
1629
1847
2161
2400
2402
2192
1855
1569
1489
1647
1931
2224
2346
2241
1952
1634
1461
1535
1783
2080
2243
2195
1968
1675
1474
1486
1682
1971
2229
2277
2094
1767
1479
1391
1535
1858
2167
2298
2185
1902
1594
1413
1488
1773
2085
2275
2224
1979
1657
1425
1419
1644
1965
2225
2281
2097
1797
1531
1461
1631
1921
2217
2341
2225
1929
1619
1466
1535
1810
2125
2322
2311
2100
1770
1517
1483
1691
2029
2326
2393
2194
1855
1567
1461
1599
1881
2191
2331
2224
1946
1655
1488
1557
1835
2163
2361
2312
2067
1733
1475
1464
1696
2013
2279
2336
2160
1846
1579
1477
1618
1909
2198
2337
2242
1967
1667
1495
1583
1840
2149
2341
2331
2108
1786
1535
1510
1715
2042
2316
2368
2210
1926
1660
1568
1717
2007
2288
2402
2302
2032
1755
1581
1623
1862
2176
2394
2397
2181
1872
1630
1589
1776
2085
2329
2371
2195
1881
1587
1461
1586
1871
2159
2293
2194
1933
1637
1466
1499
1755
2086
2304
2299
2080
1743
1475
1439
1635
1948
2221
2310
2172
1863
1582
1457
1591
1882
2189
2337
2256
2013
1745
1621
1729
2018
2384
2675
2759
2619
2333
2096
2029
2160
2416
2627
2636
2334
1831
1360
1097
1120
1360
1678
1875
1839
1600
1328
1185
1268
1574
1946
2225
2259
2079
1779
1562
1521
1699
2000
2285
2369
2240
1933
1647
1511
1613
1877
2167
2327
2286
2064
1774
1591
1598
1795
2107
2336
2355
2173
1877
1616
1535
1721
2021
2289
2384
2252
1977
1692
1535
1631
1887
2220
2416
2382
2141
1825
1613
1612
1840
2159
2414
2458
2278
1949
1677
1594
1744
2029
2309
2429
2316
2030
1741
1613
1715
1978
2297
2474
2423
2175
1866
1664
1683
1907
2228
2475
2508
2332
2035
1779
1707
1858
2159
2445
2559
2449
2170
1875
1741
1844
2122
2435
2640
2613
2377
2057
1803
1815
2047
2386
2670
2721
2524
2198
1916
1839
1973
2270
2546
2658
2529
2247
1949
1779
1873
2150
2455
2631
2559
2334
2001
1763
1746
1936
2224
2446
2479
2303
1971
1675
1569
1705
1984
2266
2381
2250
1946
1646
1473
1554
1826
2127
2311
2270
2019
1688
1469
1461
1665
1967
2215
2259
2087
1773
1494
1406
1559
1851
2133
2287
2192
1904
1601
1428
1505
1755
2059
2260
2261
2029
1698
1451
1430
1638
1946
2195
2252
2096
1791
1514
1426
1586
1872
2162
2287
2185
1905
1607
1440
1503
1750
2067
2293
2277
2055
1746
1520
1495
1697
2000
2247
2318
2181
1887
1613
1502
1638
1927
2215
2351
2253
1966
1637
1447
1514
1776
2101
2320
2309
2091
1777
1535
1513
1717
2031
2311
2378
2194
1881
1618
1523
1662
1936
2226
2366
2274
1981
1653
1456
1488
1744
2085
2314
2327
2129
1805
1527
1485
1706
2035
2316
2406
2249
1927
1625
1493
1631
1919
2201
2351
2263
1990
1689
1510
1568
1822
2151
2384
2402
2190
1870
1618
1565
1750
2081
2377
2468
2320
2015
1719
1595
1707
1999
2320
2480
2389
2113
1792
1603
1619
1834
2123
2351
2352
2139
1815
1558
1503
1681
1975
2231
2306
2159
1855
1567
1439
1559
1840
2162
2339
2271
2014
1715
1505
1519
1728
2065
2307
2320
2123
1803
1535
1487
1678
2025
2351
2496
2425
2199
1963
1898
2070
2399
2754
2960
2864
2543
2170
1894
1773
1808
1917
1987
1904
1645
1303
1066
1040
1251
1607
1947
2113
2029
1790
1535
1434
1557
1858
2195
2397
2353
2118
1813
1610
1621
1846
2178
2404
2397
2191
1875
1625
1567
1730
2032
2319
2421
2295
2003
1712
1584
1680
1947
2270
2467
2422
2183
1898
1709
1733
1936
2226
2462
2466
2238
1914
1671
1623
1792
2096
2373
2476
2347
2083
1798
1648
1735
1995
2293
2475
2418
2176
1869
1662
1694
1936
2256
2480
2503
2309
1991
1715
1635
1808
2115
2416
2543
2391
2096
1792
1643
1741
2016
2355
2559
2513
2258
1942
1728
1740
1961
2262
2479
2494
2322
2029
1793
1743
1902
2209
2486
2608
2480
2188
1882
1728
1815
2080
2397
2592
2546
2307
1984
1754
1751
1950
2249
2480
2514
2338
2027
1746
1648
1801
2111
2389
2516
2398
2091
1772
1584
1615
1856
2156
2338
2295
2053
1730
1498
1479
1680
1987
2295
2375
2176
1827
1503
1373
1503
1818
2133
2271
2143
1834
1518
1359
1437
1708
2031
2243
2224
1999
1683
1459
1443
1643
1951
2212
2275
2095
1770
1493
1393
1523
1824
2131
2287
2192
1930
1654
1487
1511
1732
2046
2270
2256
2034
1731
1491
1475
1667
1990
2282
2341
2178
1877
1594
1483
1602
1899
2225
2384
2298
2007
1676
1472
1522
1791
2127
2352
2363
2142
1815
1563
1528
1741
2085
2379
2480
2355
2067
1776
1633
1712
1966
2245
2368
2267
1987
1674
1458
1495
1732
2034
2261
2261
2043
1726
1489
1457
1659
1974
2270
2369
2224
1910
1609
1473
1598
1891
2202
2370
2299
2037
1742
1535
1579
1809
2129
2357
2371
2187
1888
1631
1574
1753
2070
2349
2414
2256
1966
1696
1577
1670
1936
2240
2416
2348
2096
1792
1610
1646
1869
2191
2418
2439
2238
1919
1666
1619
1787
2111
2406
2529
2415
2124
1822
1670
1774
2037
2350
2531
2465
2203
1889
1699
1717
1941
2247
2477
2496
2307
1990
1718
1635
1783
2073
2351
2462
2319
1994
1655
1486
1596
1869
2158
2319
2256
1994
1681
1472
1488
1723
2027
2251
2263
2091
1779
1519
1458
1654
1963
2225
2329
2195
1882
1573
1408
1508
1808
2160
2412
2437
2277
2045
1885
1952
2220
2559
2859
2864
2624
2222
1838
1603
1584
1706
1826
1837
1664
1360
1075
947
1073
1388
1787
2070
2077
1852
1572
1374
1397
1639
1971
2212
2253
2079
1759
1495
1415
1571
1871
2171
2311
2224
1971
1690
1504
1575
1840
2158
2365
2351
2098
1765
1527
1519
1728
2025
2277
2334
2176
1875
1612
1521
1674
1950
2267
2419
2342
2077
1776
1598
1657
1907
2215
2416
2402
2177
1853
1607
1569
1755
2077
2359
2434
2268
1977
1713
1611
1745
2059
2362
2512
2427
2156
1841
1668
1731
1971
2273
2480
2467
2262
1961
1721
1685
1886
2203
2473
2559
2429
2155
1879
1754
1872
2160
2455
2619
2543
2293
2001
1840
1884
2121
2417
2641
2645
2435
2131
1901
1865
2032
2354
2644
2722
2556
2258
1968
1827
1935
2219
2527
2701
2615
2336
2017
1809
1826
2027
2313
2523
2526
2302
1952
1677
1616
1804
2113
2371
2444
2271
1940
1633
1488
1585
1859
2153
2334
2261
1987
1687
1460
1502
1738
2029
2224
2202
1999
1677
1411
1351
1522
1843
2130
2236
2112
1827
1535
1403
1511
1791
2093
2266
2214
1959
1647
1425
1456
1685
1983
2213
2243
2065
1747
1476
1410
1582
1890
2181
2291
2161
1861
1584
1450
1535
1821
