2517
2434
2296
2192
2167
2219
2295
2366
2371
2314
2224
2125
2081
2114
2181
2259
2318
2288
2187
2061
1968
1951
1986
2057
2123
2141
2098
2014
1954
1951
2005
2110
2182
2198
2160
2081
1971
1906
1931
2031
2169
2234
2192
2091
1952
1872
1874
1960
2081
2191
2211
2119
2000
1907
1873
1941
2058
2163
2207
2162
2071
1982
1937
1973
2055
2151
2218
2219
2135
2017
1932
1919
1984
2077
2157
2170
2102
1986
1904
1887
1942
2054
2129
2173
2149
2078
1982
1925
1950
2022
2121
2175
2148
2047
1926
1851
1852
1930
2027
2107
2138
2069
1968
1880
1847
1879
1968
2096
2191
2219
2173
2117
2097
2167
2307
2435
2493
2443
2306
2167
2077
2027
2015
1984
1908
1780
1622
1488
1411
1423
1521
1684
1821
1920
1950
1908
1839
1823
1872
1975
2103
2192
2193
2113
1978
1883
1862
1911
2031
2136
2160
2114
2038
1983
1975
2039
2134
2234
2262
2214
2115
1999
1955
1995
2100
2217
2288
2266
2170
2035
1957
1953
2026
2143
2245
2270
2230
2151
2065
2033
2096
2208
2321
2384
2352
2260
2149
2078
2099
2192
2313
2399
2395
2311
2224
2182
2211
2297
2405
2502
2524
2458
2358
2267
2224
2271
2369
2495
2555
2509
2397
2277
2208
2224
2307
2411
2477
2459
2363
2239
2140
2112
2162
2251
2319
2334
2290
2187
2064
1999
2003
2055
2113
2146
2125
2055
1955
1934
2001
2118
2221
2262
2238
2139
2007
1906
1883
1948
2046
2134
2164
2115
2018
1934
1890
1925
2022
2138
2187
2160
2066
1902
1803
1835
1966
2114
2212
2223
2160
2062
1979
1948
1999
2112
2209
2242
2181
2065
1957
1915
1968
2075
2187
2242
2221
2112
1980
1911
1930
2000
2091
2175
2205
2125
2001
1919
1904
1968
2078
2160
2203
2155
2031
1920
1881
1902
1984
2095
2162
2162
2097
1975
1887
1873
1945
2062
2145
2163
2118
2006
1935
1918
2007
2160
2293
2378
2385
2329
2266
2227
2262
2347
2449
2516
2487
2367
2172
1954
1825
1795
1841
1898
1899
1835
1744
1683
1706
1824
1977
2116
2194
2191
2122
2033
1984
2019
2107
2206
2262
2230
2144
2039
1974
1958
2039
2177
2320
2375
2321
2223
2160
2138
2179
2269
2354
2364
2287
2163
2053
1995
2032
2141
2258
2330
2317
2231
2122
2053
2060
2129
2227
2298
2320
2298
2239
2198
2189
2243
2352
2462
2511
2469
2371
2270
2213
2226
2320
2439
2514
2519
2454
2352
2271
2269
2368
2507
2613
2633
2559
2444
2338
2295
2345
2450
2546
2559
2523
2416
2303
2239
2247
2325
2411
2475
2463
2387
2272
2182
2166
2209
2280
2342
2335
2255
2138
2032
1978
2013
2109
2196
2232
2195
2107
1989
1925
1934
2010
2118
2163
2129
2038
1947
1891
1908
1984
2106
2207
2224
2160
2047
1949
1897
1936
2032
2142
2209
2192
2102
1989
1930
1935
2015
2127
2201
2197
2116
2002
1907
1897
1968
2086
2175
2192
2115
2000
1935
1927
1981
2096
2202
2251
2192
2077
1962
1893
1909
1999
2110
2176
2163
2085
1971
1915
1922
1982
2069
2134
2150
2096
1978
1863
1811
1860
1968
2078
2128
2087
1972
1842
1765
1789
1887
2010
2096
2112
2058
1979
1941
1979
2110
2282
2442
2510
2464
2383
2275
2192
2177
2223
2273
2270
2134
1901
1643
1456
1385
1421
1525
1616
1648
1616
1552
1535
1586
1712
1875
2025
2096
2035
1911
1807
1786
1858
1988
2117
2180
2157
2062
1946
1891
1904
1989
2096
2179
2187
2112
1981
1872
1842
1920
2031
2139
2201
2161
2064
1955
1915
1962
2061
2155
2191
2161
2062
1936
1872
1919
2047
2195
2290
2311
2240
2135
2064
2047
2115
2224
2332
2379
2331
2238
2154
2127
2192
2315
2439
2499
2479
2386
2274
2219
2235
2320
2445
2531
2531
2461
2348
2256
2226
2271
2391
2491
2510
2467
2381
2293
2247
2283
2350
2426
2465
2416
2298
2153
2056
2035
2103
2193
2260
2256
2163
2040
1950
1911
1952
2062
2165
2195
2129
2033
1947
1909
1950
2033
2128
2181
2162
2071
1947
1859
1866
1943
2064
2139
2160
2105
1986
1875
1840
1904
1999
2095
2112
2061
1967
1859
1823
1856
1961
2074
2137
2127
2018
1911
1847
1840
1919
2034
2128
2135
2064
1936
1840
1831
1903
2021
2128
2182
2142
2037
1916
1845
1869
1933
2023
2125
2147
2095
1991
1890
1861
1930
2020
2092
2107
2040
1935
1840
1799
1854
1962
2062
2097
2042
1936
1828
1776
1822
1929
2047
2115
2096
1997
1870
1789
1817
1971
2165
2320
2407
2413
2364
2288
2263
2303
2359
2400
2383
2262
2043
1782
1579
1484
1501
1562
1600
1591
1520
1456
1443
1497
1642
1808
1927
1987
1968
1872
1786
1751
1806
1916
2029
2097
2081
1990
1875
1808
1819
1907
2001
2064
2064
1988
1886
1806
1794
1906
2075
2192
2224
2158
2033
1927
1887
1931
2029
2139
2195
2172
2089
1983
1923
1942
2032
2149
2219
2205
2123
2019
1949
1949
2032
2155
2252
2294
2239
2135
2042
2015
2064
2187
2320
2387
2384
2311
2235
2193
2225
2333
2448
2514
2496
2418
2309
2245
2241
2306
2399
2480
2498
2435
2314
2202
2153
2187
2287
2369
2415
2368
2255
2126
2060
2078
2159
2246
2302
2271
2160
2043
1937
1901
1975
2094
2183
2211
2153
2032
1919
1854
1849
1915
2007
2079
2066
1973
1870
1803
1831
1917
2032
2113
2114
2035
1913
1815
1772
1830
1957
2082
2138
2113
2013
1883
1808
1826
1931
2047
2115
2096
1970
1841
1767
1771
1825
1920
2055
2134
2110
1998
1910
1892
1942
2058
2151
2189
2140
2034
1936
1893
1907
1983
2074
2127
2095
1999
1890
1808
1808
1883
1972
2045
2061
1997
1904
1819
1782
1837
1936
2032
2064
1982
1867
1745
1694
1775
1911
2047
2123
2112
2022
1917
1867
1904
2013
2158
2293
2350
2321
2258
2209
2157
2155
2192
2247
2229
2077
1827
1571
1398
1346
1396
1515
1633
1666
1623
1563
1532
1579
1681
1823
1920
1961
1923
1837
1774
1775
1840
1946
2039
2071
2024
1938
1865
1823
1867
1966
2069
2144
2147
2047
1917
1824
1820
1874
2002
2135
2176
2113
2003
1920
1882
1934
2035
2137
2194
2167
2083
1986
1950
1989
2093
2222
2297
2281
2202
2094
2000
1971
2045
2162
2256
2320
2288
2187
2102
2078
2147
2283
2416
2488
2463
2365
2259
2197
2217
2303
2416
2497
2480
2390
2275
2202
2199
2277
2398
2497
2512
2443
2320
2209
2164
2194
2271
2327
2345
2287
2154
2031
1970
1991
2086
2191
2256
2227
2119
1981
1882
1867
1939
2064
2177
2209
2144
2034
1936
1889
1921
2008
2105
2143
2114
2027
1923
1840
1821
1874
1960
2021
2015
1951
1857
1808
1838
1935
2041
2134
2145
2043
1921
1814
1783
1873
2021
2159
2213
2166
2037
1913
1856
1874
1975
2109
2172
2165
2065
1930
1835
1824
1913
2044
2170
2206
2149
2031
1921
1878
1913
1997
2090
2115
2064
1949
1838
1774
1774
1841
1955
2053
2065
2000
1893
1803
1782
1847
1954
2043
2082
2045
1950
1849
1826
1884
1987
2113
2190
2182
2101
2021
1991
2022
2126
2251
2348
2379
2327
2214
2099
2012
2002
2054
2067
1983
1806
1593
1408
1327
1358
1472
1617
1735
1760
1710
1626
1593
1659
1793
1964
2083
2113
2077
1972
1872
1831
1878
1989
2111
2181
2148
2017
1899
1842
1854
1937
2053
2124
2101
2013
1925
1878
1920
2032
2182
2282
2283
2192
2064
1951
1911
1951
2045
2163
2225
2193
2085
1948
1859
1918
2065
2191
2255
2256
2203
2110
2035
2074
2177
2274
2351
2354
2297
2214
2142
2135
2195
2307
2418
2451
2410
2289
2165
2165
2250
2325
2377
2379
2352
2288
2251
2237
2263
2336
2423
2480
2471
2378
2229
2105
2038
2063
2138
2211
2230
2211
2144
2055
2000
2024
2096
2181
2239
2213
2101
1954
1870
1865
1936
2055
2143
2159
2069
1939
1837
1789
1814
1894
2014
2096
2091
2014
1921
1876
1910
2010
2125
2192
2176
2091
1964
1885
1893
1968
2078
2130
2113
2014
1893
1821
1823
1903
2014
2117
2178
2164
2096
2006
1962
1984
2064
2167
2214
2175
2078
1966
1893
1891
1968
2089
2181
2207
2148
2047
1943
1890
1911
1989
2094
2135
2094
1979
1856
1780
1782
1875
2005
2099
2094
2008
1896
1808
1801
1878
2013
2115
2128
2032
1906
1810
1793
1877
2006
2131
2214
2213
2138
2043
2015
2075
2187
2323
2416
2407
2289
2138
2007
1951
1959
1970
1947
1861
1706
1535
1424
1393
1459
1595
1731
1817
1817
1755
1681
1664
1744
1883
2053
2162
2192
2121
1983
1872
1823
1869
1977
2073
2127
2113
2043
1971
1955
2000
2099
2192
2229
2189
2094
1966
1899
1904
1984
2097
2192
2219
2150
2030
1947
1938
2022
2154
2250
2285
2240
2135
2032
1974
2001
2097
2207
2278
2263
2192
2090
2011
2033
2135
2293
2397
2416
2351
2255
2183
2171
2233
2333
2413
2438
2385
2298
2219
2172
2212
2342
2457
2525
2512
2430
2320
2242
2235
2295
2375
2425
2422
2343
2230
2133
2111
2154
2242
2311
2317
2240
2113
1983
1909
1922
1995
2093
2167
2169
2098
2010
1959
1968
2016
2099
2159
2128
2037
1932
1866
1872
1936
2053
2171
2230
2195
2092
1968
1887
1899
1975
2080
2135
2121
2039
1933
1861
1871
1958
2073
2151
2160
2075
1950
1856
1818
1861
1974
2093
2143
2119
2032
1933
1886
1931
2033
2154
2215
2207
2115
1997
1921
1904
1967
2093
2192
2214
2139
2017
1919
1861
1888
1981
2071
2113
2069
1953
1840
1792
1827
1935
2047
2138
2125
2032
1906
1807
1788
1861
1967
2059
2087
2032
1926
1818
1777
1840
1959
2081
2155
2162
2112
2067
2063
2123
2255
2397
2483
2487
2393
2255
2126
2068
2080
2103
2070
1958
1781
1605
1452
1410
1475
1610
1761
1856
1855
1791
1725
1708
1774
1889
2003
2096
2093
2027
1920
1831
1817
1901
2026
2132
2180
2133
2032
1946
1915
1988
2113
2214
2256
2209
2101
1987
1935
1965
2064
2163
2234
2226
2132
2016
1936
1921
1986
2099
2176
2233
2192
2099
1987
1949
1999
2128
2253
2320
2299
2195
2096
2064
2121
2229
2367
2453
2448
2341
2195
2122
2129
2220
2339
2432
2448
2399
2311
2231
2193
2240
2357
2490
2559
2557
2445
2293
2191
2209
2318
2449
2543
2531
2427
2295
2195
2161
2205
2285
2347
2350
2266
2141
2010
1945
1953
2041
2161
2241
2224
2129
2023
1949
1959
2042
2146
2199
2170
2075
1936
1842
1839
1919
2039
2161
2192
2117
1984
1875
1840
1904
2013
2130
2197
2163
2031
1866
1761
1773
1859
2014
2141
2160
2091
1984
1907
1889
1942
2047
2135
2161
2112
1997
1894
1825
1838
1924
2038
2107
2085
1993
1886
1817
1837
1939
2083
2183
2203
2134
2023
1926
1894
1946
2053
2138
2144
2064
1911
1797
1778
1855
1982
2107
2175
2156
2047
1927
1850
1866
1959
2071
2144
2127
2011
1872
1780
1759
1811
1920
2019
2071
2019
1921
1849
1853
1933
2096
2291
2437
2480
2450
2382
2309
2270
2281
2307
2321
2246
2045
1791
1559
1395
1380
1467
1569
1633
1630
1583
1557
1595
1678
1803
1941
2034
2034
1946
1845
1781
1807
1904
2019
2112
2133
2066
1947
1839
1796
1853
1971
2098
2159
2129
2031
1936
1899
1941
2058
2174
2240
2224
2142
2031
1967
1973
2046
2138
2198
2192
2127
2014
1926
1903
1968
2083
2190
2249
2222
2123
2019
1968
2001
2112
2219
2292
2277
2192
2110
2069
2090
2183
2304
2410
2453
2420
2327
2257
2247
2310
2410
2511
2554
2494
2366
2241
2207
2253
2358
2476
2539
2507
2400
2271
2174
2155
2219
2318
2390
2373
2288
2173
2071
2037
2087
2170
2239
2256
2207
2101
1973
1901
1909
1995
2106
2176
2160
2069
1955
1872
1859
1910
2003
2092
2114
2062
1953
1859
1817
1843
1935
2058
2116
2092
1994
1887
1823
1825
1904
2000
2073
2067
1974
1839
1742
1751
1856
1980
2084
2117
2037
1920
1827
1793
1856
1965
2067
2105
2039
1939
1832
1771
1791
1863
1961
2046
2054
1995
1904
1843
1861
1942
2094
2213
2224
2165
2046
1938
1893
1941
2035
2131
2173
2135
2021
1893
1797
1786
1857
1968
2057
2064
1988
1872
1781
1760
1809
1917
2000
2028
1968
1856
1745
1687
1712
1807
1904
1994
2031
1998
1965
1996
2106
2273
2457
2601
2623
2529
2359
2192
2087
2061
2047
2006
1887
1687
1469
1296
1229
1283
1395
1521
1642
1676
1659
1623
1648
1728
1856
2023
2143
2174
2096
1968
1857
1839
1911
2033
2134
2167
2117
2000
1888
1829
1861
1949
2043
2112
2109
2021
1935
1888
1926
2033
2159
2223
2219
2128
2002
1917
1898
1966
2089
2193
2239
2192
2106
2017
1983
2012
2096
2193
2255
2238
2166
2076
2009
2036
2146
2288
2400
2431
2367
2260
2180
2176
2246
2361
2471
2517
2461
2352
2257
2223
2266
2361
2471
2537
2521
2445
2323
2231
2209
2267
2357
2425
2400
2304
2190
2105
2094
2165
2271
2342
2367
2329
2223
2099
2026
2047
2134
2207
2231
2174
2061
1931
1845
1851
1936
2075
2177
2182
2105
1983
1868
1812
1855
1942
2043
2080
2046
1969
1874
1829
1863
1956
2061
2135
2115
2016
1898
1811
1818
1901
2006
2093
2099
2017
1901
1798
1766
1821
1940
2054
2103
2068
1984
1887
1830
1844
1923
2015
2087
2070
1987
1872
1809
1826
1907
2006
2101
2123
2063
1952
1867
1843
1899
2003
2109
2146
2112
2007
1893
1808
1837
1937
2064
2145
2129
2023
1889
1813
1802
1853
1945
2021
2053
2011
1917
1837
1799
1854
1962
2067
2115
2065
1968
1846
1791
1827
1939
2112
2243
2308
2293
2240
2197
2224
2301
2359
2382
2335
2220
2054
1883
1753
1671
1647
1655
1642
1582
1505
1436
1425
1503
1647
1783
1898
1938
1910
1829
1746
1745
1841
1983
2091
2095
2009
1893
1799
1771
1823
1950
2065
2149
2134
2079
2000
1939
1939
1992
2073
2126
2112
2033
1953
1904
1905
1986
2111
2199
2215
2148
2024
1941
1914
1967
2065
2176
2213
2187
2105
2004
1948
1979
2092
2203
2288
2315
2260
2160
2064
2033
2109
2217
2320
2368
2326
2231
2134
2091
2141
2257
2358
2423
2410
2341
2247
2193
2199
2266
2357
2411
2407
2334
2229
2151
2129
2192
2299
2385
2412
2345
2225
2128
2071
2096
2172
2254
2282
2224
2106
1959
1867
1865
1938
2038
2122
2141
2059
1926
1855
1842
1905
2002
2085
2121
2079
1979
1886
1848
1879
1968
2082
2157
2138
2027
1891
1812
1823
1905
2001
2075
2087
2022
1919
1822
1808
1881
2010
2128
2180
2131
2020
1887
1815
1831
1893
1984
2029
2006
1943
1861
1811
1810
1872
1999
2113
2133
2073
1963
1879
1872
1942
2030
2101
2103
2047
1953
1884
1871
1915
2009
2096
2131
2114
1991
1863
1772
1765
1851
1970
2069
2097
2039
1906
1796
1783
1845
1938
2014
2065
2055
1945
1838
1782
1831
1936
2093
2190
2212
2160
2075
1990
1995
2109
2235
2331
2343
2238
2111
1951
1830
1769
1769
1781
1772
1691
1581
1467
1427
1466
1587
1727
1845
1887
1837
1744
1671
1686
1808
1954
2096
2165
2112
1994
1891
1853
1902
2000
2099
2137
2071
1968
1883
1855
1888
1998
2123
2190
2179
2101
2010
1929
1904
1957
2037
2118
2145
2087
1979
1879
1857
1921
2032
2159
2238
2224
2134
2013
1927
1945
2059
2174
2257
2260
2192
2091
2000
2003
2099
2224
2349
2386
2320
2197
2090
2064
2157
2289
2390
2422
2373
2286
2204
2165
2191
2262
2350
2384
2359
2287
2191
2117
2129
2192
2304
2389
2395
2292
2155
2034
1998
2044
2147
2246
2271
2192
2045
1884
1799
1822
1904
2012
2109
2112
2042
1938
1859
1840
1908
2003
2097
2128
2075
1937
1805
1757
1790
1901
2038
2129
2118
2032
1927
1859
1869
1963
2071
2133
2119
2027
1904
1826
1818
1895
1998
2096
2117
2046
1931
1834
1806
1872
1993
2096
2149
2114
2009
1886
1813
1843
1952
2079
2141
2109
2014
1920
1879
1902
1982
2107
2181
2193
2133
2004
1883
1825
1866
1943
2047
2143
2142
2055
1921
1814
1807
1872
1968
2047
2060
1977
1871
1789
1770
1823
1913
1993
2023
1978
1886
1798
1767
1840
1978
2128
2232
2244
2183
2091
2019
2045
2143
2247
2288
2255
2165
2037
1911
1826
1793
1795
1792
1771
1698
1586
1488
1471
1552
1687
1841
1946
1957
1889
1809
1774
1798
1884
1994
2081
2102
2037
1951
1878
1872
1951
2066
2173
2192
2117
1986
1862
1787
1812
1926
2055
2131
2124
2047
1953
1891
1899
1991
2115
2195
2194
2108
1989
1918
1920
1991
2112
2206
2240
2192
2086
1968
1907
1936
2032
2158
2228
2240
2183
2095
2014
2015
2080
2192
2290
2306
2235
2120
2030
2016
2097
2219
2315
2351
2306
2229
2135
2092
2130
2235
2351
2416
2392
2291
2163
2089
2071
2130
2229
2306
2319
2256
2158
2043
1995
2046
2135
2215
2240
2188
2091
1981
1920
1937
2031
2128
2178
2139
2026
1900
1799
1776
1846
1973
2073
2081
1987
1883
1808
1799
1867
1969
2071
2105
2042
1929
1805
1737
1807
1954
2095
2165
2141
2039
1915
1838
1853
1952
2082
2179
2192
2110
1979
1867
1823
1872
1973
2064
2107
2079
1985
1884
1827
1849
1935
2036
2107
2090
1996
1872
1797
1808
1905
2045
2152
2176
2128
2018
1925
1899
1941
2025
2121
2142
2086
2001
1918
1867
1907
2005
2111
2160
2131
2041
1920
1830
1807
1862
1967
2064
2096
2032
1928
1834
1793
1856
1963
2066
2109
2078
1994
1895
1830
1856
1972
2130
2252
2279
2239
2170
2113
2117
2193
2269
2323
2306
2207
2031
1817
1667
1616
1619
1674
1706
1669
1593
1514
1499
1579
1712
1872
1984
2010
1958
1861
1799
1810
1902
2011
2094
2103
2026
1920
1829
1790
1827
1931
2043
2119
2106
2017
1917
1863
1887
1971
2076
2128
2109
1999
1882
1808
1795
1861
1994
2129
2192
2160
2066
1961
1911
1940
2037
2171
2245
2231
2148
2030
1939
1936
2021
2146
2246
2279
2238
2126
2027
2010
2095
2221
2327
2368
2320
2224
2123
2081
2116
2205
2303
2362
2347
2267
2167
2114
2160
2265
2409
2505
2514
2416
2251
2131
2112
2142
2233
2315
2331
2272
2157
2038
1978
2003
2080
2169
2224
2192
2091
1970
1892
1887
1952
2059
2128
2132
2046
1938
1850
1828
1893
1996
2087
2107
2035
1931
1851
1825
1862
1963
2095
2150
2098
1983
1857
1776
1779
1872
1984
2063
2066
1985
1861
1755
1729
1774
1883
1999
2071
2043
1955
1861
1819
1872
1984
2105
2155
2112
1989
1854
1770
1777
1854
1967
2074
2093
2013
1887
1761
1713
1792
1893
1996
2065
2047
1969
1890
1849
1869
1937
2062
2143
2135
2034
1881
1775
1755
1818
1925
2008
2016
1939
1817
1732
1697
1749
1852
1956
2006
1968
1872
1759
1706
1740
1840
1955
2032
2030
1937
1808
1753
1793
1922
2099
2258
2337
2335
2279
2208
2171
2166
2176
2199
2166
2016
1795
1557
1379
1328
1367
1457
1533
1535
1499
1439
1425
1478
1587
1728
1839
1889
1876
1829
1774
1777
1855
1961
2065
2118
2076
1965
1842
1785
1822
1919
2019
2080
2054
1963
1863
1804
1802
1869
1968
2047
2059
1995
1873
1775
1759
1831
1951
2064
2125
2096
2000
1888
1827
1840
1917
2035
2148
2179
2126
2021
1936
1915
1967
2071
2167
2213
2171
2067
1979
1943
2000
2124
2240
2305
2270
2176
2069
2011
2061
2176
2291
2339
2320
2255
2161
2071
2065
2149
2251
2361
2380
2297
2173
2063
2010
2042
2118
2210
2247
2199
2096
1978
1902
1901
1983
2093
2151
2126
2009
1858
1744
1712
1763
1851
1921
1945
1903
1798
1691
1663
1682
1770
1890
1978
1987
1938
1838
1730
1687
1739
1822
1869
1846
1770
1663
1602
1616
1717
1854
1947
1976
1919
1808
1697
1635
1689
1791
1875
1890
1847
1749
1634
1573
1610
1718
1860
1956
1965
1911
1821
1728
1671
1682
1744
1813
1830
1770
1691
1623
1614
1678
1790
1890
1941
1931
1852
1765
1718
1739
1839
1954
2023
1997
1887
1737
1594
1554
1632
1750
1870
1914
1871
1773
1663
1597
1617
1712
1813
1866
1840
1745
1645
1575
1595
1715
1870
1968
1971
1875
1742
1651
1648
1766
1947
2124
2211
2218
2162
2079
2012
2005
2043
2094
2115
2019
1824
1566
1353
1241
1233
1302
1380
1419
1387
1322
1281
1313
1437
1606
1758
1824
1802
1721
1635
1593
1635
1733
1840
1902
1875
1786
1670
1595
1603
1696
1827
1943
1985
1923
1802
1687
1651
1709
1821
1936
1975
1917
1803
1699
1662
1712
1818
1937
2022
2018
1946
1837
1759
1762
1840
1959
2057
2064
1972
1856
1778
1760
1818
1935
2055
2113
2094
2000
1895
1855
1915
2041
2185
2289
2298
2237
2151
2093
2096
2162
2278
2374
2384
2316
2209
2115
2075
2122
2215
2315
2355
2319
2221
2101
2041
2073
2141
2223
2274
2253
2149
2013
1907
1882
1964
2071
2151
2169
2099
1975
1856
1795
1821
1887
1968
2014
1968
1859
1771
1738
1770
1860
1968
2034
2028
1938
1818
1719
1701
1773
1874
1966
1991
1921
1809
1719
1695
1762
1863
1945
1966
1919
1838
1727
1648
1655
1735
1843
1908
1894
1803
1671
1575
1579
1674
1795
1908
1959
1921
1830
1738
1721
1755
1831
1911
1965
1936
1853
1744
1678
1699
1798
1927
2010
2015
1936
1809
1722
1711
1785
1901
1989
2026
1985
1872
1771
1727
1755
1836
1909
1939
1904
1808
1695
1626
1633
1729
1869
1975
1975
1894
1778
1702
1701
1775
1885
1991
2032
1984
1879
1791
1759
1821
1953
2112
2214
2229
2179
2111
2071
2093
2162
2245
2288
2253
2129
1953
1745
1581
1489
1486
1529
1555
1505
1423
1373
1389
1487
1646
1801
1907
1922
1856
1765
1711
1738
1847
1975
2065
2089
2023
1925
1846
1822
1862
1960
2043
2073
2005
1904
1808
1758
1793
1904
2047
2159
2173
2103
1975
1869
1878
1953
2055
2138
2150
2082
1979
1894
1872
1939
2069
2177
2203
2154
2037
1921
1866
1904
1995
2101
2161
2145
2064
1967
1921
1968
2087
2228
2329
2333
2251
2139
2030
1989
2046
2160
2270
2326
2287
2182
2064
2002
2032
2123
2230
2304
2288
2180
2037
1953
1956
2036
2160
2253
2267
2192
2063
1941
1900
1937
2033
2122
2129
2045
1926
1809
1776
1839
1966
2091
2151
2130
2029
1907
1819
1806
1866
1963
2033
2047
1985
1885
1795
1767
1833
1942
2064
2110
2064
1954
1840
1783
1808
1897
2015
2114
2115
2039
1934
1842
1835
1911
2032
2127
2127
2053
1963
1872
1840
1897
2030
2162
2219
2183
2064
1920
1847
1867
1959
2098
2177
2179
2098
1982
1895
1883
1971
2105
2221
2256
2189
2058
1923
1872
1899
2000
2118
2181
2139
2019
1879
1797
1810
1906
2032
2107
2096
2015
1926
1863
1863
1945
2089
2213
2269
2220
2094
1967
1919
1965
2070
2182
2253
2242
2169
2081
2045
2118
2263
2423
2517
2512
2386
2214
2077
2005
2009
2042
2027
1950
1792
1625
1495
1463
1528
1670
1821
1935
1952
1904
1830
1791
1827
1929
2064
2171
2206
2158
2057
1958
1936
2009
2135
2240
2271
2222
2112
1991
1943
1991
2109
2218
2282
2256
2163
2045
1984
2000
2108
2235
2322
2335
2274
2171
2064
2027
2095
2189
2278
2318
2268
2172
2069
2014
2062
2161
2285
2361
2368
2299
2207
2160
2174
2258
2384
2480
2490
2411
2286
2192
2185
2272
2391
2497
2559
2546
2446
2320
2256
2292
2395
2515
2581
2555
2449
2320
2235
2229
2301
2403
2492
2495
2414
2276
2178
2150
2209
2313
2402
2427
2352
2219
2080
1993
2005
2112
2241
2318
2311
2229
2112
2019
2013
2096
2207
2273
2269
2181
2046
1947
1923
1987
2110
2215
2260
2207
2093
1968
1920
1963
2071
2179
2245
2223
2119
1990
1905
1907
2000
2129
2230
2244
2164
2037
1936
1917
1982
2097
2211
2257
2224
2117
2000
1931
1955
2055
2176
2229
2187
2100
1971
1897
1919
2030
2173
2267
2287
2203
2071
1965
1934
1995
2112
2214
2253
2201
2081
1936
1868
1893
1983
2103
2181
2162
2069
1943
1857
1850
1935
2058
2147
2146
2071
1951
1857
1825
1890
2017
2127
2167
2116
1995
1891
1845
1904
2047
2225
2356
2384
2316
2212
2129
2113
2171
2273
2343
2313
2143
1901
1648
1495
1473
1570
1681
1771
1790
1745
1666
1648
1712
1847
2010
2114
2122
2036
1925
1851
1860
1948
2078
2181
2218
2160
2059
1969
1947
2014
2114
2224
2279
2230
2121
1990
1917
1937
2035
2176
2254
2250
2152
2027
1934
1920
1997
2129
2241
2283
2224
2115
1994
1961
2027
2143
2279
2357
2329
2231
2118
2068
2086
2176
2294
2384
2395
2321
2218
2144
2142
2224
2342
2453
2498
2453
2362
2263
2224
2286
2395
2495
2535
2497
2399
2287
2203
2221
2318
2438
2528
2538
2477
2338
2201
2157
2201
2304
2384
2417
2374
2271
2174
2135
2176
2267
2335
2352
2295
2176
2039
1967
1981
2067
2182
2261
2262
2178
2069
1979
1966
2043
2165
2259
2285
2211
2087
1967
1919
1951
2075
2213
2272
2233
2127
1987
1902
1907
1994
2129
2234
2257
2197
2091
1985
1956
2017
2132
2234
2273
2211
2096
1974
1907
1943
2046
2165
2238
2197
2077
1956
1891
1910
2016
2167
2267
2297
2233
2109
1984
1936
1975
2073
2164
2203
2185
2115
2029
1981
2017
2123
2239
2311
2292
2192
2057
1959
1951
2030
2156
2240
2243
2160
2022
1895
1856
1914
2018
2142
2192
2145
2029
1920
1869
1899
2000
2129
2207
2211
2128
2016
1985
2037
2157
2327
2492
2585
2538
2413
2256
2182
2199
2273
2320
2267
2108
1872
1649
1499
1489
1584
1714
1803
1808
1754
1671
1637
1683
1808
1969
2106
2145
2091
1989
1918
1905
1968
2090
2193
2245
2197
2084
1953
1885
1907
2002
2130
2210
2192
2094
1965
1892
1898
1991
2128
2241
2261
2198
2099
2011
1990
2054
2165
2287
2361
2334
2224
2090
2007
2025
2119
2255
2346
2352
2267
2135
2037
2021
2127
2265
2389
2446
2402
2307
2218
2177
2230
2347
2449
2505
2483
2397
2291
2252
2291
2405
2540
2633
2624
2533
2432
2384
2370
2432
2529
2605
2597
2511
2390
2297
2252
2284
2369
2467
2493
2427
2318
2204
2127
2128
2193
2301
2355
2349
2276
2166
2080
2071
2134
2209
2246
2231
2157
2034
1927
1871
1906
1999
2095
2170
2174
2096
1973
1903
1908
1997
2124
2226
2226
2130
2000
1905
1876
1936
2059
2176
2197
2129
2025
1919
1855
1898
2020
2163
2239
2198
2083
1938
1857
1862
1951
2098
2188
2179
2077
1949
1857
1837
1911
2046
2151
2185
2127
2019
1927
1875
1919
2023
2132
2192
2160
2059
1947
1887
1889
1965
2075
2157
2155
2068
1921
1820
1781
1819
1931
2035
2093
2033
1919
1803
1744
1786
1887
2003
2090
2059
1956
1843
1779
1801
1904
2027
2128
2155
2089
1991
1936
1974
2099
2256
2403
2468
2418
2279
2106
1978
1938
1969
1995
1943
1788
1568
1344
1203
1179
1271
1415
1555
1619
1614
1565
1502
1515
1648
1813
1944
2006
1971
1883
1789
1742
1787
1892
2003
2085
2066
1967
1847
1759
1758
1845
1959
2047
2079
2015
1903
1795
1767
1818
1921
2047
2116
2098
2007
1897
1836
1872
1983
2113
2191
2160
2045
1921
1850
1861
1964
2095
2186
2203
2138
2017
1920
1902
1982
2128
2265
2335
2315
2239
2157
2111
2133
2226
2337
2404
2385
2305
2206
2135
2143
2220
2327
2438
2511
2480
2386
2289
2255
2287
2365
2446
2481
2433
2320
2205
2146
2171
2256
2339
2380
2358
2273
2164
2078
2065
2128
2224
2272
2255
2160
2019
1909
1867
1907
2002
2126
2183
2129
2027
1925
1874
1890
1975
2081
2151
2137
2043
1934
1858
1856
1936
2038
2127
2155
2086
1949
1838
1786
1821
1914
2064
2160
2160
2090
1968
1869
1835
1915
2037
2125
2113
2031
1906
1838
1858
1948
2080
2172
2199
2115
1981
1870
1813
1869
1987
2123
2189
2146
2032
1910
1847
1865
1967
2089
2160
2145
2032
1906
1843
1869
1967
2102
2199
2228
2166
2034
1891
1822
1844
1934
2033
2082
2061
1968
1858
1781
1783
1877
1995
2096
2103
2036
1927
1840
1818
1872
1980
2065
2089
2064
2000
1942
1947
2035
2190
2347
2465
2485
2407
2269
2134
2096
2143
2223
2237
2135
1908
1650
1437
1332
1362
1488
1626
1709
1699
1647
1589
1602
1696
1853
2003
2101
2099
2014
1913
1845
1854
1939
2055
2119
2111
2034
1946
1877
1877
1968
2097
2207
2239
2165
2041
1935
1887
1923
2027
2142
2221
2201
2112
1987
1931
1951
2032
2157
2246
2256
2188
2085
1983
1977
2075
2194
2309
2351
2278
2174
2086
2032
2064
2160
2288
2385
2397
2322
2204
2128
2147
2235
2374
2474
2495
2413
2288
2191
2151
2210
2335
2459
2515
2482
2382
2267
2213
2255
2357
2431
2473
2448
2353
2237
2165
2161
2240
2351
2447
2454
2368
2223
2099
2047
2089
2179
2273
2320
2279
2177
2037
1935
1909
1982
2093
2160
2143
2055
1943
1883
1899
1983
2096
2188
2211
2150
2030
1919
1885
1935
2037
2131
2167
2106
1975
1857
1817
1859
1965
2090
2189
2198
2110
1984
1890
1900
1977
2111
2199
2225
2190
2083
1953
1899
1920
2013
2118
2161
2126
2037
1942
1873
1883
1964
2090
2187
2206
2141
2032
1956
1973
2062
2189
2297
2333
2272
2159
2032
1969
1981
2054
2155
2202
2146
2022
1904
1840
1871
1978
2109
2189
2198
2128
1998
1891
1851
1886
1953
2035
2107
2081
1984
1904
1891
1957
2074
2192
2283
2287
2216
2128
2106
2177
2314
2449
2519
2481
2351
2172
2021
1937
1900
1872
1855
1792
1681
1522
1408
1393
1498
1663
1835
1966
1997
1927
1847
1810
1840
1943
2082
2176
2176
2089
1951
1856
1863
1950
2094
2214
2256
2207
2101
1998
1953
2009
2132
2263
2321
2284
2160
2022
1935
1949
2039
2173
2259
2279
2203
2091
1999
1986
2067
2193
2314
2352
2305
2192
2072
2007
2033
2143
2270
2351
2339
2265
2167
2098
2123
2223
2349
2434
2447
2371
2263
2173
2156
2227
2362
2471
2512
2469
2372
2292
2247
2271
2349
2441
2498
2485
2383
2253
2176
2191
2275
2400
2491
2498
2411
2281
2174
2139
2192
2302
2397
2426
2361
2227
2091
1999
2003
2097
2224
2303
2274
2165
2031
1946
1936
2002
2117
2199
2202
2123
1984
1885
1878
1963
2107
2235
2293
2240
2119
1981
1904
1931
2023
2128
2189
2159
2035
1921
1853
1869
1969
2109
2206
2241
2191
2095
1999
1959
2010
2123
2225
2259
2206
2084
1959
1891
1933
2032
2157
2224
2204
2109
1983
1895
1898
1977
2113
2230
2262
2186
2068
1984
1970
2032
2142
2231
2278
2227
2098
1965
1900
1905
1987
2110
2187
2173
2064
1925
1836
1834
1925
2061
2161
2187
2127
2000
1886
1846
1906
2017
2138
2194
2175
2087
1985
1954
2023
2176
2339
2446
2463
2384
2250
2123
2076
2130
2221
2271
2222
2032
1789
1580
1455
1474
1614
1776
1876
1869
1782
1702
1665
1722
1856
2001
2111
2113
2021
1919
1850
1863
1957
2091
2203
2246
2183
2071
1968
1933
1984
2096
2201
2247
2206
2095
1968
1911
1956
2059
2180
2262
2251
2159
2041
1950
1934
2007
2133
2234
2259
2213
2112
2011
1968
2012
2147
2288
2358
2337
2246
2138
2061
2046
2121
2245
2335
2351
2287
2180
2117
2128
2222
2363
2479
2535
2467
2342
2223
2166
2217
2327
2447
2523
2514
2440
2325
2243
2254
2349
2459
2535
2544
2464
2350
2256
2220
2271
2395
2499
2522
2441
2298
2145
2047
2064
2141
2227
2271
2227
2115
1991
1926
1939
2027
2141
2227
2227
2126
1974
1859
1811
1867
1984
2109
2162
2128
2019
1911
1862
1913
2022
2128
2195
2163
2061
1935
1855
1850
1921
2053
2159
2181
2125
2013
1923
1906
1968
2083
2171
2205
2155
2037
1918
1861
1904
2014
2129
2195
2176
2086
1952
1863
1869
1955
2078
2156
2150
2066
1955
1872
1863
1942
2071
2179
2236
2181
2067
1938
1883
1914
2018
2147
2209
2197
2093
1943
1845
1846
1921
2043
2137
2134
2031
1889
1787
1764
1837
1975
2113
2160
2110
1984
1870
1818
1856
1965
2096
2163
2151
2069
1975
1937
1998
2131
2290
2432
2497
2467
2379
2258
2175
2183
2256
2322
2287
2109
1840
1581
1386
1336
1408
1530
1649
1687
1664
1616
1615
1691
1839
1984
2090
2102
2015
1876
1791
1771
1840
1983
2129
2203
2160
2047
1927
1862
1885
1979
2091
2153
2142
2065
1936
1857
1869
1969
2109
2210
2236
2167
2037
1936
1910
1969
2081
2182
2223
2186
2089
1969
1904
1936
2031
2145
2224
2226
2160
2068
2016
2047
2157
2299
2405
2431
2353
2224
2113
2076
2147
2279
2417
2480
2452
2355
2251
2199
2237
2338
2463
2549
2553
2475
2354
2265
2244
2297
2384
2465
2471
2398
2274
2169
2129
2190
2316
2438
2486
2437
2323
2192
2103
2101
2181
2284
2335
2310
2207
2058
1940
1906
1963
2084
2175
2192
2129
2011
1884
1831
1881
1994
2113
2169
2128
2017
1905
1840
1865
1968
2127
2229
2240
2157
2006
1891
1871
1943
2065
2158
2175
2096
1968
1842
1791
1830
1936
2058
2119
2097
2000
1890
1838
1861
1968
2102
2187
2182
2082
1947
1839
1808
1875
1994
2097
2128
2067
1949
1819
1770
1837
1979
2143
2244
2239
2155
2027
1943
1935
2012
2139
2223
2224
2145
2000
1890
1856
1919
2022
2117
2161
2112
1987
1863
1809
1853
1950
2064
2117
2087
1974
1844
1766
1775
1872
2000
2102
2107
2013
1885
1792
1791
1887
2046
2207
2298
2303
2245
2174
2159
2231
2356
2480
2512
2420
2256
2057
1877
1754
1707
1701
1695
1649
1535
1423
1349
1365
1478
1648
1808
1906
1904
1818
1725
1694
1763
1895
2045
2133
2137
2043
1915
1840
1856
1939
2075
2167
2173
2095
1965
1858
1825
1884
2005
2127
2173
2119
2001
1875
1829
1873
1984
2128
2225
2213
2122
1991
1919
1918
1998
2128
2237
2271
2202
2066
1939
1909
1973
2095
2210
2272
2240
2160
2064
2030
2083
2194
2320
2415
2413
2334
2226
2160
2160
2254
2370
2491
2519
2481
2383
2281
2256
2311
2416
2513
2559
2511
2403
2292
2227
2259
2366
2470
2512
2480
2362
2209
2099
2075
2143
2262
2352
2365
2288
2149
2000
1934
1989
2115
2243
2290
2231
2109
1959
1876
1890
1984
2104
2186
2177
2085
1943
1837
1798
1850
1951
2041
2047
1968
1842
1744
1726
1817
1954
2090
2145
2105
2000
1908
1826
1814
1877
1983
2062
2065
1979
1844
1760
1750
1838
1971
2097
2131
2074
1943
1830
1782
1820
1914
2014
2074
2035
1927
1813
1769
1808
1925
2046
2131
2138
2059
1929
1837
1822
1892
2001
2107
2142
2078
1963
1872
1856
1925
2055
2176
2240
2210
2096
1959
1874
1872
1957
2074
2150
2129
2014
1854
1743
1715
1807
1939
2064
2109
2042
1923
1810
1761
1802
1907
2029
2091
2046
1929
1803
1741
1786
1919
2106
2259
2333
2288
2182
2093
2093
2192
2320
2402
2397
2291
2128
1965
1840
1767
1744
1746
1718
1633
1499
1367
1295
1328
1458
1627
1779
1866
1855
1779
1715
1728
1808
1931
2054
2096
2041
1929
1825
1761
1791
1889
2014
2106
2095
1990
1860
1766
1761
1862
1998
2097
2115
2037
1907
1808
1790
1872
2000
2117
2166
2111
1985
1891
1851
1901
2032
2174
2241
2195
2070
1931
1851
1865
1982
2134
2260
2297
2222
2099
1991
1981
2059
2176
2291
2345
2302
2190
2087
2038
2096
2220
2361
2468
2475
2398
2287
2202
2199
2275
2387
2479
2484
2408
2282
2155
2106
2160
2285
2384
2446
2402
2267
2115
2030
2043
2129
2234
2289
2252
2131
1989
1903
1911
2011
2128
2195
2201
2123
1982
1858
1807
1861
1963
2084
2139
2111
2002
1883
1808
1835
1931
2039
2107
2076
1968
1839
1739
1729
1822
1961
2069
2103
2039
1911
1782
1742
1802
1918
2019
2077
2042
1936
1818
1747
1773
1856
1962
2057
2057
1955
1826
1726
1712
1803
1953
2077
2121
2074
1941
1821
1758
1815
1936
2047
2095
2032
1907
1789
1739
1791
1921
2070
2155
2139
2021
1872
1753
1740
1827
1948
2039
2055
1957
1829
1714
1667
1717
1833
1956
2015
1976
1866
1747
1686
1713
1808
1926
2003
2007
1923
1789
1677
1667
1758
1903
2000
2031
2000
1935
1884
1886
1986
2132
2287
2379
2378
2283
2131
2007
1965
2002
2057
2047
1934
1730
1499
1312
1238
1293
1429
1591
1678
1661
1585
1520
1522
1643
1806
1953
2030
2014
1915
1803
1743
1765
1855
1989
2080
2096
2023
1898
1805
1795
1866
1984
2095
2127
2059
1925
1814
1764
1819
1940
2064
2147
2132
2035
1914
1845
1863
1962
2077
2158
2160
2067
1923
1833
1827
1914
2064
2192
2251
2194
2081
1958
1915
1966
2095
2223
2297
2267
2165
2043
1978
1991
2089
2210
2320
2352
2293
2191
2119
2122
2203
2337
2447
2478
2402
2269
2156
2099
2117
2197
2308
2384
2353
2221
2067
1982
2006
2112
2226
2308
2325
2245
2112
1983
1936
1987
2102
2208
2240
2167
2020
1874
1808
1845
1950
2055
2095
2007
1884
1792
1762
1807
1918
2047
2147
2146
2059
1928
1813
1762
1815
1925
2032
2081
2026
1904
1791
1731
1764
1866
1985
2069
2057
1936
1791
1711
1728
1834
1986
2093
2118
2041
1916
1807
1791
1847
1968
2079
2146
2096
1988
1851
1776
1814
1915
2047
2123
2102
1989
1858
1763
1773
1873
2015
2128
2156
2083
1949
1840
1805
1872
1989
2071
2080
2002
1877
1761
1688
1725
1855
1990
2063
2037
1945
1833
1758
1773
1870
1991
2095
2109
2031
1895
1759
1712
1760
1875
1995
2058
2011
1913
1807
1771
1845
1996
2178
2304
2353
2313
2211
2117
2083
2128
2221
2288
2247
2087
1836
1568
1369
1321
1394
1520
1617
1627
1568
1486
1470
1566
1733
1897
2014
2047
1965
1836
1740
1724
1799
1935
2053
2086
2020
1905
1803
1771
1833
1953
2076
2134
2112
1999
1871
1813
1841
1949
2073
2141
2112
2015
1894
1808
1798
1900
2043
2160
2204
2160
2045
1931
1883
1938
2082
2207
2271
2230
2113
1975
1898
1910
2010
2143
2240
2234
2166
2061
1974
1971
2069
2203
2327
2367
2326
2222
2121
2096
2159
2282
2406
2476
2439
2331
2195
2126
2137
2226
2341
2405
2393
2293
2157
2041
2018
2096
2206
2307
2341
2277
2129
1980
1901
1918
2000
2115
2182
2159
2046
1915
1825
1823
1888
1994
2062
2039
1947
1805
1686
1663
1737
1858
1971
2007
1937
1807
1687
1643
1686
1802
1922
1993
1939
1815
1683
1603
1619
1727
1853
1936
1936
1849
1734
1669
1677
1746
1873
1971
1992
1920
1801
1683
1629
1666
1776
1885
1957
1929
1833
1702
1627
1644
1719
1832
1920
1925
1831
1702
1599
1583
1661
1792
1911
1966
1918
1805
1675
1611
1651
1760
1880
1957
1966
1885
1780
1695
1687
1767
1865
1961
1982
1901
1750
1629
1590
1643
1746
1850
1901
1847
1739
1619
1554
1587
1700
1830
1904
1891
1806
1680
1584
1575
1652
1786
1895
1927
1879
1792
1729
1728
1837
2003
2176
2275
2256
2134
1966
1847
1842
1900
1942
1901
1744
1523
1296
1119
1071
1147
1326
1507
1603
1594
1506
1434
1442
1535
1682
1808
1860
1819
1711
1591
1531
1573
1680
1808
1901
1891
1793
1670
1584
1586
1683
1799
1886
1910
1844
1750
1664
1633
1698
1827
1953
2019
1974
1873
1749
1670
1667
1759
1896
2000
2004
1914
1786
1706
1701
1791
1925
2034
2075
2000
1859
1733
1686
1746
1872
1994
2083
2063
1973
1872
1825
1872
1992
2137
2235
2251
2173
2063
1975
1984
2060
2173
2269
2301
2247
2138
2033
1988
2032
2128
2224
2256
2199
2066
1918
1826
1851
1957
2096
2191
2187
2080
1920
1793
1743
1783
1886
1978
2003
1931
1791
1664
1599
1635
1750
1870
1936
1899
1772
1621
1527
1535
1645
1787
1877
1874
1790
1666
1567
1553
1639
1776
1869
1883
1814
1690
1568
1516
1569
1682
1817
1886
1854
1755
1639
1570
1588
1685
1820
1902
1897
1801
1662
1553
1530
1616
1747
1866
1899
1835
1712
1602
1555
1598
1710
1829
1899
1873
1776
1654
1575
1579
1668
1794
1899
1912
1841
1728
1632
1637
1728
1839
1936
1968
1904
1779
1648
1591
1627
1714
1826
1899
1866
1755
1634
1556
1574
1680
1821
1920
1934
1855
1727
1629
1600
1661
1781
1873
1904
1843
1730
1615
1561
1586
1694
1808
1883
1878
1823
1758
1745
1808
1957
2145
2303
2379
2349
2250
2130
2047
2041
2091
2112
2046
1847
1584
1334
1187
1190
1273
1413
1502
1522
1485
1427
1398
1452
1600
1762
1906
1966
1919
1799
1712
1691
1739
1856
1971
2020
1970
1867
1758
1709
1759
1869
1995
2078
2065
1970
1840
1751
1756
1846
1975
2089
2113
2054
1908
1778
1751
1833
1957
2089
2151
2114
1994
1881
1832
1879
1983
2099
2165
2153
2066
1954
1875
1883
1979
2109
2221
2262
2202
2097
1998
1974
2063
2198
2309
2363
2319
2213
2102
2055
2107
2239
2381
2479
2475
2390
2289
2220
2222
2311
2431
2531
2547
2455
2303
2165
2112
2160
2250
2352
2398
2349
2213
2070
1977
1984
2086
2207
2288
2268
2150
1990
1886
1867
1941
2069
2157
2163
2091
1947
1830
1779
1835
1946
2070
2133
2105
1997
1869
1807
1829
1917
2046
2135
2135
2047
1919
1829
1799
1871
1987
2086
2124
2069
1939
1826
1776
1831
1962
2096
2173
2138
2028
1904
1838
1863
1957
2086
2182
2195
2113
1986
1877
1838
1893
2019
2123
2138
2062
1930
1823
1793
1882
2043
2182
2227
2197
2097
1965
1893
1910
1997
2102
2170
2160
2073
1946
1847
1839
1920
2059
2175
2229
2199
2094
1973
1917
1941
2036
2133
2193
2161
2054
1927
1840
1847
1936
2058
2147
2155
2079
1955
1885
1896
1968
2106
2209
2246
2196
2080
1941
1876
1921
2059
2221
2321
2339
2295
2238
2224
2293
2442
2549
2604
2559
2416
2215
2001
1831
1735
1712
1710
1682
1644
1596
1532
1519
1588
1744
1911
2007
2022
1983
1905
1847
1862
1965
2115
2223
2224
2131
1999
1917
1901
1971
2107
2231
2283
2229
2107
1977
1923
1970
2079
2197
2267
2239
2124
2009
1948
1979
2066
2193
2283
2299
2224
2114
2006
1971
2042
2148
2256
2313
2281
2171
2035
1982
2037
2169
2302
2378
2368
2279
2177
2112
2129
2230
2366
2458
2468
2402
2299
2209
2196
2288
2435
2559
2613
2559
2455
2343
2283
2319
2421
2542
2611
2582
2480
2368
2275
2273
2345
2441
2524
2544
2461
2333
2214
2159
2198
2315
2419
2445
2373
2245
2119
2047
2077
2160
2267
2320
2284
2173
2037
1941
1947
2081
2249
2349
2353
2245
2085
1936
1873
1922
2033
2161
2237
2206
2106
1985
1913
1908
1974
2094
2176
2176
2109
2007
1949
1959
2030
2153
2256
2293
2238
2075
1909
1819
1861
1974
2096
2146
2115
2016
1917
1874
1936
2055
2186
2261
2230
2112
1968
1871
1851
1903
1989
2078
2123
2096
1987
1883
1843
1903
2022
2150
2240
2246
2175
2075
1999
2000
2075
2177
2257
2253
2163
2022
1891
1842
1877
1969
2103
2197
2166
2055
1957
1926
1972
2071
2160
2189
2127
1999
1866
1787
1789
1903
2054
2146
2140
2057
1924
1840
1867
1997
2171
2326
2405
2386
2314
2229
2202
2258
2355
2438
2481
2423
2275
2096
1930
1820
1786
1792
1808
1773
1671
1557
1501
1527
1658
1843
1990
2074
2064
1988
1904
1883
1958
2110
2265
2333
2288
2160
2030
1958
1984
2079
2194
2281
2269
2180
2063
1979
1977
2065
2188
2302
2327
2248
2128
2003
1966
2015
2142
2256
2325
2320
2230
2147
2107
2146
2240
2357
2446
2448
2375
2251
2142
2111
2171
2282
2391
2429
2383
2297
2220
2197
2261
2380
2496
2559
2515
2429
2321
2259
2279
2368
2501
2586
2596
2524
2417
2365
2363
2437
2539
2635
2675
2597
2453
2322
2256
2295
2385
2502
2559
2543
2449
2320
2227
2224
2299
2412
2496
2493
2391
2247
2139
2113
2171
2263
2355
2384
2320
2199
2084
2012
2033
2137
2255
2315
2279
2176
2047
1952
1963
2058
2169
2269
2287
2211
2081
1955
1931
2000
2126
2246
2303
2257
2158
2041
1967
1987
2096
2224
2283
2263
2174
2064
1984
1977
2067
2193
2291
2287
2192
2083
2006
1967
2014
2118
2229
2291
2256
2145
2017
1953
1991
2112
2239
2315
2285
2190
2047
1955
1971
2075
2211
2322
2359
2290
2176
2071
2013
2060
2156
2261
2309
2258
2144
2000
1917
1902
1966
2093
2175
2160
2073
1962
1887
1904
1993
2115
2205
2235
2161
2032
1925
1889
1951
2071
2186
2240
2208
2123
2000
1944
1997
2136
2304
2416
2450
2395
2271
2154
2112
2160
2246
2305
2276
2098
1840
1616
1493
1514
1619
1741
1810
1795
1712
1625
1590
1650
1776
1935
2056
2085
2018
1910
1824
1822
1918
2060
2179
2224
2165
2057
1942
1878
1908
2015
2143
2190
2133
2002
1872
1797
1840
1949
2100
2209
2215
2125
1979
1885
1884
1985
2133
2270
2320
2261
2145
2027
1971
2016
2132
2253
2306
2256
2129
1991
1937
1984
2096
2227
2320
2338
2259
2144
2064
2063
2145
2279
2393
2448
2401
2283
2163
2126
2192
2322
2451
2527
2496
2386
2263
2192
2209
2299
2405
2481
2486
2399
2259
2151
2130
2197
2320
2427
2455
2394
2261
2135
2055
2059
2146
2240
2305
2272
2167
2019
1927
1936
2032
2176
2267
2256
2159
2007
1910
1898
1968
2108
2210
2245
2187
2059
1931
1870
1907
2009
2115
2173
2137
2037
1920
1841
1865
1958
2095
2186
2192
2107
1983
1882
1869
1951
2083
2205
2250
2181
2057
1932
1878
1922
2034
2160
2222
2191
2084
1943
1850
1842
1927
2063
2163
2190
2130
2031
1922
1875
1930
2047
2165
2210
2147
2021
1899
1855
1890
2006
2135
2221
2201
2096
1979
1906
1907
2003
2141
2215
2219
2128
1991
1890
1856
1910
2015
2126
2170
2113
1990
1870
1803
1832
1936
2087
2162
2160
2077
1938
1851
1846
1917
2027
2124
2147
2078
1963
1872
1876
1995
2167
2326
2415
2411
2347
2274
2235
2251
2310
2374
2398
2314
2096
1823
1604
1493
1511
1606
1705
1746
1691
1589
1520
1535
1662
1840
2001
2110
2087
2000
1893
1843
1888
1993
2112
2191
2183
2098
1969
1886
1904
2013
2147
2248
2271
2193
2047
1911
1872
1935
2065
2192
2257
2233
2127
1994
1922
1944
2047
2191
2276
2259
2164
2031
1938
1935
2023
2160
2250
2271
2213
2107
2010
1989
2062
2179
2307
2367
2324
2229
2119
2064
2112
2231
2368
2459
2453
2371
2253
2173
2175
2267
2387
2480
2501
2454
2339
2243
2207
2263
2383
2509
2577
2544
2431
2288
2202
2209
2297
2411
2473
2444
2331
2195
2099
2095
2171
2288
2374
2383
2294
2146
1996
1918
1941
2045
2173
2240
2197
2085
1938
1853
1855
1933
2055
2142
2143
2047
1909
1810
1805
1898
2036
2158
2194
2128
2004
1880
1819
1863
1981
2100
2155
2113
1999
1872
1818
1846
1941
2047
2109
2101
2012
1900
1821
1813
1899
2031
2155
2192
2132
2013
1903
1844
1886
1984
2111
2176
2142
2027
1897
1817
1835
1919
2038
2118
2114
2036
1907
1817
1818
1905
2027
2129
2173
2125
2011
1917
1875
1939
2061
2171
2226
2181
2062
1920
1841
1839
1901
2016
2101
2090
1985
1870
1790
1793
1875
2000
2103
2113
2032
1909
1785
1734
1778
1893
2015
2087
2043
1920
1779
1703
1727
1851
2029
2203
2286
2266
2210
2189
2213
2318
2451
2527
2511
2386
2194
1965
1758
1641
1600
1600
1584
1526
1431
1341
1309
1377
1535
1743
1904
1974
1945
1849
1770
1755
1843
1975
2109
2147
2080
1952
1823
1776
1811
1907
2027
2131
2138
2058
1934
1847
1850
1920
2043
2150
2160
2077
1946
1854
1821
1889
2018
2159
2219
2158
2007
1871
1807
1851
1981
2140
2240
2231
2137
2002
1926
1939
2042
2171
2270
2282
2223
2112
2007
1982
2047
2178
2313
2368
2335
2235
2102
2027
2078
2214
2352
2435
2439
2374
2282
2209
2209
2300
2431
2526
2538
2451
2316
2192
2134
2176
2288
2386
2430
2374
2243
2101
2031
2089
2202
2321
2387
2359
2257
2113
2009
1976
2019
2122
2181
2177
2087
1936
1818
1786
1848
1967
2085
2126
2065
1933
1809
1744
1765
1859
2001
2099
2087
1993
1858
1762
1751
1826
1949
2059
2082
2000
1879
1772
1731
1792
1907
2026
2065
2023
1930
1805
1744
1778
1891
2015
2106
2095
1984
1855
1744
1718
1786
1905
1991
2013
1937
1824
1723
1679
1739
1851
1985
2055
2010
1905
1792
1738
1782
1908
2033
2110
2081
1963
1829
1739
1742
1833
1981
2099
2124
2041
1905
1792
1754
1811
1921
2023
2084
2047
1941
1818
1743
1760
1830
1966
2033
2031
1936
1813
1715
1699
1767
1889
2006
2047
2011
1897
1785
1734
1773
1872
1982
2042
2032
1963
1877
1857
1936
2100
2283
2420
2463
2399
2259
2128
2064
2087
2160
2180
2086
1869
1606
1379
1263
1280
1403
1535
1630
1631
1566
1490
1479
1559
1705
1882
2009
2039
1973
1843
1733
1709
1786
1919
2022
2064
2018
1907
1795
1762
1817
1930
2046
2110
2077
1967
1839
1758
1773
1876
2014
2109
2119
2032
1926
1845
1846
1920
2047
2160
2201
2143
2018
1904
1864
1905
2011
2134
2218
2193
2078
1941
1887
1933
2031
2164
2256
2273
2193
2074
1983
1971
2070
2208
2330
2390
2349
2240
2133
2083
2116
2237
2370
2462
2453
2368
2253
2174
2169
2241
2359
2447
2449
2361
2215
2095
2043
2101
2222
2320
2349
2261
2118
1986
1941
1984
2101
2221
2268
2229
2103
1953
1863
1851
1933
2055
2128
2112
2015
1879
1783
1771
1841
1953
2064
2112
2055
1920
1808
1754
1797
1915
2059
2145
2114
1985
1835
1726
1702
1787
1918
2019
2043
1979
1865
1775
1745
1801
1907
2014
2063
1984
1857
1742
1689
1724
1838
1975
2075
2075
1985
1865
1774
1774
1863
1983
2079
2087
2005
1883
1786
1759
1827
1935
2041
2094
2035
1921
1803
1767
1827
1953
2097
2169
2160
2064
1915
1819
1799
1856
1966
2065
2085
2014
1901
1778
1719
1773
1873
1983
2042
2005
1895
1773
1702
1726
1839
1969
2064
2059
1971
1855
1760
1742
1812
1923
2032
2094
2064
1965
1873
1868
1965
2145
2318
2410
2381
2239
2075
1969
1972
2030
2063
2000
1853
1619
1392
1267
1275
1383
1535
1682
1730
1700
1616
1573
1600
1703
1855
2009
2104
2081
1969
1830
1763
1808
1934
2070
2130
2123
2042
1935
1849
1835
1911
2015
2112
2139
2078
1961
1846
1807
1858
1981
2107
2172
2134
2017
1887
1811
1838
1935
2067
2177
2192
2111
1999
1910
1883
1953
2090
2210
2241
2189
2087
1973
1931
1973
2101
2231
2310
2287
2197
2101
2039
2083
2193
2342
2445
2449
2365
2235
2140
2128
2206
2320
2430
2467
2405
2289
2177
2124
2160
2262
2384
2442
2416
2288
2114
1987
2003
2147
2294
2397
2400
2308
2167
2043
1993
2033
2133
2222
2239
2173
2031
1897
1817
1845
1947
2066
2127
2096
1979
1840
1758
1753
1840
1975
2093
2115
2014
1877
1778
1749
1830
1961
2084
2145
2087
1946
1810
1730
1755
1861
1985
2069
2062
1955
1835
1763
1776
1889
2035
2141
2150
2047
1903
1789
1760
1830
1953
2071
2113
2044
1923
1821
1781
1811
1914
2039
2117
2090
1968
1818
1727
1764
1891
2047
2170
2194
2119
1982
1872
1843
1900
2007
2117
2139
2067
1941
1829
1776
1815
1917
2032
2103
2080
1968
1819
1733
1746
1856
1991
2103
2128
2033
1881
1776
1757
1833
1949
2064
2096
2047
1941
1828
1789
1857
1991
2142
2252
2274
2205
2106
2046
2066
2151
2257
2327
2332
2223
2033
1840
1680
1621
1634
1673
1666
1605
1504
1424
1410
1495
1663
1854
1987
2014
1942
1823
1745
1769
1872
2026
2136
2157
2083
1957
1855
1823
1879
1999
2115
2162
2109
1989
1879
1840
1871
1979
2099
2192
2179
2086
1943
1855
1851
1936
2064
2173
2213
2148
2036
1955
1930
2000
2121
2229
2286
2241
2128
2000
1922
1936
2039
2160
2240
2240
2161
2046
1966
1969
2081
2223
2348
2389
2341
2229
2118
2077
2129
2256
2383
2443
2415
2307
2200
2145
2185
2273
2389
2473
2477
2387
2256
2160
2142
2227
2365
2458
2471
2374
2233
2107
2032
2059
2162
2273
2320
2259
2132
1995
1921
1950
2046
2167
2251
2229
2114
1954
1833
1808
1886
2008
2111
2144
2079
1938
1821
1777
1830
1945
2061
2126
2096
1987
1872
1809
1841
1941
2079
2160
2150
2061
1936
1831
1793
1852
1959
2064
2103
2055
1938
1818
1774
1831
1964
2096
2160
2125
1996
1845
1744
1763
1885
2025
2105
2098
2007
1894
1808
1808
1899
2031
2147
2175
2098
1967
1839
1791
1849
1973
2112
2196
2162
2046
1899
1822
1837
1925
2055
2153
2167
2074
1925
1814
1795
1857
1983
2091
2127
2062
1925
1798
1728
1766
1890
2021
2087
2054
1937
1805
1728
1761
1865
2013
2134
2154
2075
1941
1836
1807
1893
2032
2187
2270
2256
2179
2100
2096
2171
2290
2382
2432
2389
2251
2047
1856
1736
1705
1723
1734
1691
1587
1460
1386
1392
1504
1680
1840
1936
1935
1873
1793
1765
1815
1950
2096
2183
2161
2067
1946
1854
1850
1939
2085
2176
2192
2107
1968
1867
1837
1901
2029
2139
2184
2135
2016
1903
1852
1904
2032
2171
2256
2241
2143
2012
1931
1933
2015
2130
2234
2254
2194
2074
1962
1919
1984
2101
2218
2258
2209
2115
2026
1999
2066
2195
2320
2393
2397
2315
2203
2127
2138
2245
2379
2480
2489
2384
2243
2143
2123
2185
2320
2448
2502
2452
2333
2205
2141
2177
2288
2406
2480
2467
2378
2246
2157
2128
2187
2290
2367
2353
2255
2106
1983
1942
2015
2123
2210
2245
2176
2032
1887
1819
1840
1939
2078
2160
2135
2029
1889
1787
1776
1862
1988
2093
2107
2029
1916
1819
1790
1857
1982
2102
2160
2111
1983
1851
1778
1808
1919
2064
2149
2128
2006
1851
1759
1773
1847
1968
2081
2111
2035
1911
1808
1778
1839
1957
2077
2137
2087
1967
1840
1777
1811
1931
2066
2139
2113
2000
1874
1785
1781
1858
2001
2128
2158
2091
1959
1840
1782
1826
1907
1987
2054
2032
1955
1866
1823
1861
1957
2073
2137
2115
2010
1873
1759
1729
1795
1913
2005
2033
1973
1847
1751
1726
1788
1903
2012
2070
2035
1926
1794
1716
1739
1840
1984
2113
2167
2139
2067
2018
2063
2190
2349
2475
2493
2388
2219
2067
1971
1934
1917
1891
1815
1675
1483
1318
1244
1289
1432
1619
1791
1869
1829
1745
1674
1664
1733
1872
2010
2083
2039
1957
1872
1835
1872
1981
2090
2137
2096
1984
1857
1775
1791
1890
2018
2112
2115
2033
1915
1833
1823
1904
2037
2159
2193
2135
2023
1936
1898
1946
2055
2167
2230
2195
2072
1925
1837
1855
1961
2107
2195
2192
2119
2011
1909
1887
1983
2142
2279
2343
2293
2185
2094
2059
2115
2252
2390
2479
2475
2374
2242
2159
2166
2270
2413
2507
2501
2402
2258
2164
2163
2242
2362
2467
2496
2427
2288
2154
2096
2128
2230
2347
2410
2368
2249
2109
1981
1933
1984
2093
2197
2254
2186
2041
1923
1887
1939
2061
2166
2214
2153
2010
1865
1776
1801
1902
2032
2127
2110
1997
1856
1767
1776
1871
1994
2081
2087
1989
1856
1742
1701
1764
1893
2000
2053
2018
1920
1808
1742
1780
1901
2030
2107
2083
1985
1856
1781
1791
1894
2027
2122
2128
2043
1907
1799
1775
1828
1936
2041
2095
2033
1930
1808
1754
1797
1903
2018
2099
2066
1957
1817
1751
1776
1878
2016
2157
2192
2118
1984
1859
1821
1883
1989
2099
2128
2046
1909
1791
1734
1776
1877
1986
2045
2015
1920
1801
1715
1712
1791
1920
2031
2045
1963
1845
1749
1713
1775
1899
2023
2077
2022
1922
1828
1792
1866
2021
2193
2313
2350
2309
2211
2131
2127
2190
2288
2349
2301
2106
1839
1590
1441
1401
1457
1535
1594
1587
1515
1456
1443
1535
1706
1875
1991
2013
1937
1806
1719
1718
1810
1951
2079
2121
2073
1962
1846
1808
1865
1965
2079
2128
2093
1984
1865
1777
1821
1936
2066
2150
2147
2070
1949
1856
1840
1927
2055
2159
2177
2099
1970
1855
1813
1887
2022
2160
2224
2181
2059
1936
1895
1958
2078
2215
2315
2318
2223
2079
1971
1970
2069
2202
2319
2368
2303
2187
2083
2047
2125
2271
2415
2491
2460
2353
2224
2150
2174
2271
2391
2477
2467
2354
2198
2101
2096
2176
2290
2374
2394
2304
2160
2011
1956
1999
2112
2231
2275
2205
2079
1923
1834
1840
1923
2061
2146
2163
2085
1935
1820
1776
1835
1919
1999
2016
1968
1855
1731
1684
1746
1887
2037
2112
2065
1930
1782
1693
1722
1831
1967
2066
2071
1968
1836
1728
1711
1787
1904
1997
2028
1968
1862
1763
1723
1774
1885
2021
2096
2067
1965
1828
1727
1725
1811
1936
2053
2079
1995
1843
1743
1721
1806
1938
2061
2108
2069
1968
1862
1807
1829
1935
2057
2113
2100
2001
1872
1791
1808
1899
2009
2099
2081
1982
1850
1754
1730
1807
1933
2045
2081
2009
1877
1731
1653
1713
1834
1968
2055
2031
1925
1808
1741
1759
1855
1966
2039
2037
1934
1815
1722
1712
1822
2014
2218
2333
2310
2212
2109
2031
2030
2090
2177
2223
2146
1952
1687
1456
1344
1344
1438
1535
1582
1535
1450
1401
1447
1577
1725
1859
1920
1893
1791
1682
1635
1679
1827
1979
2070
2035
1925
1801
1727
1735
1836
1968
2077
2094
2000
1867
1743
1712
1785
1914
2027
2081
2026
1904
1784
1715
1744
1871
2007
2093
2079
1968
1841
1761
1763
1858
2001
2127
2143
2085
1967
1843
1823
1907
2033
2142
2187
2139
2019
1900
1843
1895
2011
2154
2262
2259
2150
2007
1920
1927
2030
2190
2330
2368
2308
2217
2106
2026
2079
2206
2319
2352
2269
2129
1987
1923
1963
2070
2202
2288
2255
2143
1996
1904
1894
1973
2098
2179
2176
2066
1918
1776
1727
1763
1863
1986
2058
2006
1888
1760
1677
1701
1781
1897
1979
1974
1889
1755
1652
1646
1722
1856
1971
2003
1935
1796
1671
1616
1680
1819
1937
2006
1975
1856
1712
1648
1688
1803
1943
2019
2021
1917
1781
1694
1700
1776
1872
1935
1961
1905
1808
1734
1728
1804
1907
2001
2047
1991
1887
1761
1703
1745
1856
1989
2079
2069
1979
1854
1749
1739
1808
1937
2027
2059
1971
1847
1749
1718
1782
1887
2026
2090
2034
1904
1787
1725
1745
1840
1969
2059
2039
1935
1779
1680
1680
1751
1876
2000
2032
1936
1808
1712
1690
1766
1897
2019
2078
2041
1966
1872
1842
1903
2043
2205
2317
2330
2223
2041
1885
1819
1861
1951
1981
1904
1734
1523
1355
1275
1319
1454
1625
1735
1757
1681
1614
1587
1655
1795
1943
2043
2059
1966
1837
1749
1755
1838
1979
2105
2145
2088
1963
1830
1780
1831
1945
2062
2128
2092
1968
1852
1780
1793
1878
2000
2114
2131
2064
1959
1870
1855
1936
2074
2185
2226
2173
2047
1907
1849
1909
2047
2194
2260
2219
2105
1978
1916
1952
2067
2210
2305
2310
2221
2101
2010
2011
2110
2252
2372
2416
2358
2254
2159
2126
2183
2305
2427
2487
2450
2345
2214
2145
2161
2247
2371
2446
2414
2305
2169
2055
2027
2097
2217
2334
2385
2349
2237
2109
2032
2067
2169
2257
2281
2218
2092
1922
1813
1807
1893
2014
2114
2126
2046
1915
1811
1791
1856
1981
2096
2128
2053
1915
1776
1706
1744
1872
2018
2112
2111
2015
1895
1820
1840
1934
2061
2148
2158
2067
1944
1854
1826
1892
2009
2128
2167
2103
1963
1852
1819
1873
