1988
1989
1990
1990
1993
1991
1995
1990
1989
1984
1989
1991
1989
1988
1996
1981
1988
1986
1990
1989
2027
2135
2273
2394
2461
2430
2304
2170
2085
2099
2183
2288
2345
2309
2199
2055
1943
1922
1984
2081
2141
2127
2015
1858
1709
1637
1648
1728
1808
1833
1765
1629
1479
1395
1397
1479
1595
1662
1642
1535
1422
1329
1322
1384
1482
1574
1585
1515
1395
1279
1229
1279
1378
1483
1527
1490
1392
1277
1206
1226
1311
1424
1501
1504
1414
1297
1216
1195
1258
1365
1461
1487
1431
1343
1247
1213
1267
1387
1508
1571
1535
1438
1316
1241
1236
1319
1429
1513
1505
1426
1322
1221
1187
1221
1316
1388
1415
1360
1257
1151
1104
1145
1263
1378
1440
1425
1331
1230
1166
1186
1279
1391
1472
1472
1401
1296
1205
1199
1269
1386
1494
1525
1470
1358
1235
1175
1200
1285
1393
1468
1482
1458
1431
1459
1585
1757
1915
1997
1958
1805
1570
1328
1168
1104
1105
1137
1151
1109
1040
976
986
1095
1261
1419
1535
1568
1517
1434
1376
1392
1481
1611
1702
1723
1666
1566
1466
1440
1495
1616
1730
1781
1745
1661
1569
1531
1581
1684
1803
1865
1849
1762
1664
1601
1629
1731
1850
1943
1970
1925
1829
1754
1745
1820
1946
2074
2139
2126
2062
1987
1952
1994
2109
2227
2309
2317
2257
2170
2112
2114
2176
2264
2335
2335
2275
2166
2068
2027
2069
2160
2241
2261
2207
2094
1959
1872
1866
1926
1998
2037
2015
1923
1809
1744
1743
1807
1888
1957
1970
1915
1814
1728
1696
1735
1820
1909
1963
1942
1856
1771
1721
1744
1818
1914
1968
1963
1889
1797
1729
1728
1793
1897
1968
1989
1941
1863
1778
1751
1787
1867
1949
1984
1954
1888
1820
1788
1821
1904
1998
2059
2043
1963
1862
1797
1790
1845
1931
1993
2003
1938
1838
1745
1712
1744
1823
1904
1936
1906
1826
1733
1686
1714
1801
1899
1963
1957
1881
1793
1737
1744
1812
1900
1969
1988
1951
1872
1799
1774
1803
1867
1950
1974
1938
1856
1760
1698
1712
1810
1954
2078
2160
2195
2213
2209
2218
2255
2285
2263
2173
2001
1794
1610
1493
1474
1531
1621
1690
1712
1696
1678
1681
1731
1840
1966
2047
2061
1994
1922
1871
1871
1935
2032
2129
2163
2123
2035
1959
1933
1971
2064
2155
2203
2190
2125
2035
1981
1990
2065
2160
2235
2245
2202
2129
2075
2065
2124
2223
2305
2335
2313
2256
2198
2183
2235
2322
2427
2489
2487
2434
2365
2333
2353
2448
2554
2627
2625
2547
2448
2368
2353
2406
2487
2553
2559
2507
2414
2310
2256
2265
2314
2368
2398
2366
2282
2176
2101
2093
2138
2223
2264
2247
2171
2073
1991
1967
2009
2106
2187
2215
2176
2094
2001
1961
1984
2064
2157
2211
2192
2113
2015
1951
1948
2007
2102
2177
2192
2142
2047
1970
1954
1990
2078
2160
2192
2161
2087
2005
1969
1999
2085
2181
2231
2223
2146
2054
1983
1968
2017
2106
2173
2177
2128
2032
1942
1909
1937
2003
2066
2091
2042
1968
1893
1856
1875
1938
2005
2047
2032
1968
1891
1842
1863
1935
2026
2113
2118
2058
1958
1872
1858
1905
1990
2068
2094
2032
1936
1842
1795
1816
1879
1975
2055
2085
2079
2065
2096
2196
2332
2435
2491
2466
2353
2167
1968
1822
1746
1729
1743
1745
1711
1644
1584
1569
1637
1771
1902
1985
2013
1983
1922
1877
1889
1954
2047
2128
2148
2109
2027
1953
1931
1970
2063
2149
2193
2187
2123
2035
1984
2000
2064
2151
2219
2224
2177
2097
2034
2030
2093
2182
2273
2304
2265
2197
2133
2124
2180
2282
2382
2443
2435
2381
2318
2288
2317
2394
2490
2559
2559
2518
2443
2375
2357
2398
2478
2544
2555
2512
2418
2324
2278
2294
2361
2427
2443
2390
2293
2188
2110
2101
2147
2218
2257
2240
2174
2080
1999
1983
2019
2095
2147
2160
2121
2037
1961
1932
1968
2043
2120
2150
2116
2038
1959
1914
1936
2001
2096
2162
2165
2109
2012
1937
1916
1962
2031
2103
2117
2077
1991
1911
1882
1919
2002
2108
2160
2148
2078
1987
1937
1942
2000
2085
2141
2127
2063
1959
1881
1856
1897
1968
2023
2030
1981
1893
1806
1758
1773
1842
1929
1978
1966
1894
1811
1761
1770
1834
1920
1983
1993
1936
1855
1783
1771
1814
1900
1977
2015
1977
1887
1792
1746
1775
1840
1909
1937
1911
1847
1798
1795
1867
2013
2185
2295
2305
2226
2082
1926
1815
1749
1715
1695
1647
1569
1470
1406
1405
1488
1637
1791
1889
1918
1882
1825
1791
1814
1889
1979
2055
2070
2018
1946
1887
1873
1925
2016
2101
2130
2096
2022
1948
1910
1939
2013
2112
2173
2167
2100
2010
1955
1966
2034
2131
2222
2247
2218
2152
2089
2077
2131
2224
2320
2374
2368
2317
2256
2235
2271
2357
2450
2522
2523
2477
2401
2350
2345
2402
2489
2551
2559
2507
2416
2326
2285
2309
2371
2427
2446
2395
2304
2193
2123
2114
2160
2218
2242
2220
2146
2054
1970
1949
1987
2070
2146
2158
2085
1979
1883
1857
1904
1994
2085
2127
2096
2001
1904
1849
1867
1943
2034
2103
2099
2025
1936
1870
1871
1927
2013
2087
2102
2047
1958
1873
1841
1879
1968
2055
2106
2090
2023
1946
1904
1917
1979
2058
2097
2096
2028
1936
1858
1839
1873
1937
1987
1985
1922
1831
1749
1724
1759
1830
1904
1927
1904
1837
1766
1739
1757
1825
1913
1981
1986
1931
1840
1766
1749
1799
1875
1953
1978
1942
1872
1789
1746
1754
1811
1874
1899
1859
1787
1711
1693
1771
1910
2099
2247
2318
2288
2176
2032
1919
1853
1811
1755
1675
1561
1424
1334
1318
1397
1535
1702
1821
1863
1841
1795
1772
1805
1889
1991
2064
2069
2018
1935
1862
1845
1902
1984
2077
2112
2096
2030
1963
1939
1986
2085
2169
2207
2182
2106
2021
1971
1985
2059
2139
2205
2224
2192
2131
2080
2081
2145
2245
2346
2395
2378
2317
2254
2241
2293
2391
2501
2559
2579
2529
2458
2416
2422
2482
2559
2623
2624
2559
2479
2399
2379
2416
2484
2541
2539
2461
2352
2249
2185
2182
2231
2293
2320
2288
2195
2089
1997
1975
2027
2110
2170
2173
2114
2026
1943
1914
1947
2022
2096
2115
2089
2011
1925
1873
1894
1968
2063
2106
2082
1995
1898
1838
1838
1901
1992
2061
2067
2006
1919
1840
1814
1859
1936
2012
2047
2029
1968
1904
1872
1904
1973
2055
2098
2073
1984
1889
1823
1814
1856
1921
1983
1997
1939
1843
1761
1731
1747
1818
1885
1926
1907
1840
1753
1706
1727
1797
1887
1934
1919
1853
1769
1707
1703
1767
1862
1935
1949
1903
1815
1741
1712
1733
1798
1863
1882
1840
1744
1653
1609
1651
1777
1938
2101
2199
2247
2224
2174
2128
2103
2079
2029
1915
1729
1521
1349
1269
1287
1383
1505
1616
1655
1657
1637
1637
1686
1787
1899
1973
1973
1920
1846
1789
1779
1847
1939
2022
2053
2005
1926
1847
1826
1872
1959
2061
2089
2073
2011
1937
1899
1922
1997
2107
2176
2175
2113
2032
1972
1973
2034
2138
2227
2260
2241
2192
2143
2128
2182
2283
2384
2447
2448
2398
2323
2283
2311
2384
2474
2544
2547
2496
2403
2329
2308
2359
2425
2478
2470
2403
2300
2199
2144
2157
2206
2269
2293
2248
2155
2035
1962
1939
1986
2060
2112
2097
2026
1936
1866
1850
1891
1968
2025
2046
1999
1909
1829
1789
1808
1875
1957
2000
1984
1909
1810
1747
1748
1808
1899
1968
1973
1920
1840
1773
1749
1802
1898
1979
1991
1951
1878
1808
1788
1823
1904
1985
2026
2004
1939
1856
1808
1808
1866
1936
1975
1959
1894
1802
1719
1697
1735
1799
1855
1870
1821
1734
1661
1629
1664
1744
1831
1877
1868
1807
1727
1673
1680
1730
1818
1887
1903
1847
1767
1701
1683
1739
1819
1890
1904
1841
1762
1674
1625
1635
1711
1818
1908
1962
1984
2003
2046
2113
2187
2253
2260
2179
1994
1773
1563
1415
1367
1387
1427
1463
1456
1433
1424
1456
1531
1667
1793
1873
1884
1843
1776
1728
1744
1817
1909
1984
2001
1951
1872
1803
1787
1830
1907
1985
2025
2003
1943
1872
1839
1868
1962
2064
2122
2114
2055
1969
1920
1936
2000
2096
2160
2181
2155
2096
2038
2039
2112
2213
2311
2369
2368
2320
2259
2235
2282
2367
2451
2512
2511
2453
2380
2324
2317
2355
2429
2483
2493
2441
2343
2256
2213
2222
2271
2322
2326
2269
2176
2069
2006
1995
2037
2106
2158
2147
2069
1963
1874
1863
1904
1981
2044
2061
2003
1920
1842
1813
1856
1936
2015
2039
2031
1953
1865
1803
1818
1885
1966
2017
2011
1952
1869
1812
1813
1872
1951
2014
2029
1982
1895
1830
1822
1881
1972
2072
2112
2087
2000
1907
1841
1838
1892
1968
2026
2006
1931
1827
1744
1728
1775
1847
1911
1923
1885
1809
1735
1702
1726
1793
1863
1907
1889
1833
1761
1723
1737
1807
1876
1942
1941
1883
1802
1741
1730
1786
1869
1933
1940
1885
1793
1703
1657
1680
1770
1890
1989
2053
2080
2097
2135
2191
2256
2306
2303
2205
2027
1815
1631
1515
1473
1492
1535
1585
1587
1556
1535
1553
1629
1740
1847
1904
1904
1851
1785
1745
1775
1855
1942
2013
2025
1985
1921
1850
1834
1884
1979
2060
2094
2057
1983
1906
1872
1895
1973
2076
2133
2138
2083
1997
1948
1963
2033
2128
2199
2215
2167
2103
2059
2064
2129
2237
2333
2386
2383
2327
2259
2241
2274
2363
2451
2501
2480
2406
2320
2263
2267
2325
2410
2463
2465
2398
2297
2210
2182
2210
2270
2325
2345
2297
2197
2078
2001
2001
2053
2114
2137
2111
2033
1946
1884
1889
1945
2031
2095
2091
2029
1941
1879
1860
1900
1961
2018
2039
2007
1941
1877
1850
1875
1943
2017
2065
2045
1971
1882
1824
1823
1888
1984
2047
2062
2000
1923
1858
1840
1881
1962
2053
2085
2039
1959
1863
1812
1827
1894
1970
2016
1995
1920
1815
1731
1714
1759
1839
1904
1920
1878
1806
1738
1719
1751
1834
1904
1929
1899
1827
1744
1702
1733
1822
1910
1962
1938
1866
1777
1713
1712
1775
1856
1919
1923
1863
1767
1678
1642
1686
1795
1939
2060
2120
2142
2128
2105
2101
2118
2121
2069
1936
1763
1575
1411
1347
1362
1441
1530
1593
1603
1587
1574
1600
1680
1792
1903
1960
1940
1872
1797
1763
1792
1870
1959
2021
2015
1958
1874
1818
1813
1871
1957
2034
2064
2042
1984
1919
1890
1920
1997
2085
2128
2112
2053
1983
1942
1974
2057
2148
2210
2226
2187
2129
2091
2100
2172
2276
2365
2408
2387
2329
2272
2250
2290
2371
2461
2508
2494
2429
2342
2281
2288
2346
2421
2461
2447
2383
2279
2192
2159
2186
2240
2284
2279
2219
2126
2026
1972
1984
2047
2118
2148
2112
2031
1939
1887
1899
1968
2047
2096
2091
2025
1936
1868
1844
1886
1968
2038
2063
2021
1946
1867
1831
1855
1920
1997
2039
2017
1949
1869
1821
1829
1907
2000
2087
2106
2054
1978
1910
1894
1929
1995
2063
2075
2027
1937
1853
1808
1831
1892
1965
1995
1963
1881
1790
1722
1722
1777
1861
1921
1925
1875
1799
1728
1706
1746
1827
1915
1956
1921
1850
1765
1727
1749
1826
1917
1975
1968
1902
1808
1734
1723
1773
1840
1885
1883
1836
1758
1726
1761
1875
2037
2211
2304
2288
2181
2022
1873
1783
1738
1702
1649
1557
1450
1350
1314
1365
1485
1640
1779
1855
1857
1817
1778
1779
1840
1929
2011
2039
2003
1936
1851
1837
1879
1967
2047
2101
2095
2030
1949
1889
1891
1951
2046
2127
2143
2100
2018
1958
1953
2011
2109
2194
2240
2225
2160
2090
2058
2094
2175
2273
2340
2354
2314
2254
2223
2245
2330
2443
2527
2559
2531
2463
2386
2363
2399
2481
2559
2597
2559
2481
2386
2332
2334
2384
2448
2480
2448
2351
2231
2147
2123
2160
2221
2267
2259
2205
2123
2031
1980
1999
2071
2128
2146
2103
2013
1933
1877
1885
1938
2026
2091
2095
2032
1951
1890
1890
1937
2007
2078
2089
2032
1941
1868
1838
1867
1943
2021
2066
2039
1969
1887
1847
1878
1963
2064
2121
2112
2032
1936
1862
1843
1893
1968
2030
2033
1977
1887
1794
1744
1766
1831
1904
1933
1904
1833
1748
1701
1711
1776
1858
1915
1911
1856
1778
1721
1723
1774
1856
1932
1949
1904
1823
1745
1728
1767
1840
1904
1933
1891
1808
1712
1648
1635
1687
1787
1872
1936
1953
1963
1996
2083
2187
2269
2291
2223
2062
1841
1625
1467
1389
1381
1427
1472
1477
1461
1445
1476
1561
1690
1824
1921
1956
1934
1869
1808
1790
1843
1930
2000
2015
1985
1919
1850
1829
1867
1954
2047
2091
2071
2000
1927
1879
1894
1962
2058
2132
2154
2116
2054
2000
2000
2059
2149
2239
2277
2255
2193
2127
2110
2160
2265
2375
2448
2471
2432
2381
2352
2374
2449
2547
2624
2628
2559
2487
2416
2387
2435
2512
2595
2623
2586
2493
2383
2301
2282
2319
2370
2390
2359
2271
2160
2078
2060
2099
2164
2207
2195
2127
2021
1936
1904
1936
2000
2067
2096
2053
1966
1891
1856
1871
1923
1989
2022
2000
1925
1844
1791
1792
1856
1936
1997
2001
1950
1860
1782
1756
1794
1885
1979
2031
2017
1952
1875
1840
1862
1933
2001
2042
2017
1943
1853
1776
1763
1804
1871
1922
1931
1869
1771
1683
1649
1685
1771
1843
1873
1840
1759
1680
1647
1679
1748
1838
1895
1888
1822
1754
1686
1680
1743
1809
1885
1904
1868
1789
1717
1687
1712
1773
1833
1845
1802
1711
1619
1594
1648
1786
1957
2121
2229
2257
2224
2151
2096
2047
1998
1908
1775
1591
1387
1227
1158
1186
1294
1424
1535
1602
1610
1602
1615
1666
1763
1871
1938
1946
1888
1808
1743
1741
1797
1889
1971
1996
1966
1891
1823
1795
1840
1921
2007
2047
2035
1979
1905
1866
1893
1967
2047
2115
2133
2094
2011
1949
1947
2002
2109
2211
2263
2255
2207
2155
2137
2192
2283
2384
2448
2451
2403
2341
2311
2338
2416
2511
2579
2579
2512
2417
2347
2325
2358
2427
2482
2492
2438
2338
2230
2171
2176
2225
2267
2277
2224
2119
2000
1931
1926
1977
2059
2112
2101
2025
1926
1841
1817
1861
1930
1994
2019
1981
1910
1840
1804
1831
1901
1973
2014
1998
1924
1841
1791
1793
1856
1938
2000
1998
1934
1842
1771
1751
1803
1894
1981
2031
2002
1938
1854
1815
1839
1904
1968
1997
1962
1883
1799
1742
1738
1792
1866
1915
1899
1833
1734
1665
1650
1703
1798
1879
1906
1871
1782
1707
1667
1694
1775
1863
1907
1888
1815
1729
1680
1701
1776
1876
1941
1951
1887
1789
1706
1677
1712
1776
1830
1847
1817
1765
1743
1787
1917
2109
2291
2395
2384
2290
2128
1967
1830
1734
1680
1641
1569
1473
1374
1313
1325
1413
1564
1708
1799
1813
1773
1725
1712
1751
1830
1919
1986
1985
1933
1855
1797
1805
1883
1986
2063
2075
2029
1947
1872
1856
1897
1980
2064
2103
2087
2023
1954
1929
1955
2030
2128
2192
2197
2144
2064
2015
2031
2111
2211
2303
2335
2305
2246
2193
2195
2259
2358
2459
2518
2507
2443
2368
2327
2346
2416
2493
2542
2523
2454
2367
2291
2278
2316
2374
2422
2414
2348
2241
2149
2099
2109
2160
2207
2213
2170
2077
1983
1927
1937
1999
2071
2113
2100
2023
1933
1870
1863
1919
2000
2082
2096
2039
1953
1873
1854
1895
1968
2034
2077
2059
1974
1882
1825
1838
1904
1980
2032
2027
1977
1905
1851
1856
1924
2011
2073
2081
2032
1950
1866
1829
1849
1919
1984
2006
1973
1893
1798
1739
1741
1795
1871
1927
1929
1878
1796
1735
1719
1777
1855
1925
1942
1910
1835
1758
1730
1778
1868
1959
1998
1966
1887
1795
1732
1735
1787
1858
1913
1907
1845
1755
1691
1693
1787
1934
2092
2201
2257
2261
2227
2190
2176
2177
2160
2092
1935
1731
1521
1381
1343
1394
1503
1616
1677
1678
1648
1617
1639
1717
1826
1922
1961
1936
1857
1782
1757
1797
1878
1979
2039
2029
1957
1872
1813
1840
1921
2019
2093
2097
2038
1950
1887
1883
1939
2026
2106
2136
2106
2032
1967
1942
1985
2081
2178
2240
2240
2192
2122
2085
2110
2198
2311
2399
2416
2369
2304
2249
2243
2295
2383
2457
2483
2448
2371
2295
2258
2288
2353
2423
2461
2429
2342
2234
2138
2109
2143
2206
2248
2254
2179
2079
1986
1954
1989
2062
2125
2129
2098
2000
1911
1863
1877
1949
2034
2087
2074
2013
1930
1873
1876
1943
2029
2096
2097
2032
1939
1862
1840
1882
1955
2023
2047
2011
1942
1878
1861
1907
1981
2063
2112
2096
2014
1919
1853
1849
1902
1971
2029
2018
1961
1865
1781
1749
1776
1840
1901
1921
1878
1787
1712
1663
1689
1771
1861
1919
1909
1854
1771
1713
1713
1774
1851
1911
1918
1873
1799
1735
1712
1751
1834
1908
1936
1903
1812
1721
1664
1665
1719
1808
1883
1919
1913
1897
1916
1994
2099
2189
2224
2172
2038
1861
1670
1525
1453
1449
1473
1498
1493
1463
1450
1469
1557
1680
1813
1907
1931
1889
1816
1767
1773
1840
1935
2007
2027
1983
1903
1829
1811
1866
1954
2047
2095
2078
2006
1941
1904
1923
1998
2099
2160
2158
2109
2023
1967
1963
2019
2114
2194
2235
2213
2160
2101
2094
2144
2242
2342
2403
2405
2352
2294
2265
2293
2381
2476
2539
2544
2489
2403
2331
2325
2373
2449
2512
2524
2468
2369
2278
2237
2253
2309
2372
2384
2339
2238
2128
2063
2058
2110
2176
2215
2195
2119
2010
1933
1913
1965
2047
2113
2128
2071
1989
1918
1888
1922
1991
2067
2099
2076
2002
1922
1872
1882
1939
2021
2082
2078
2015
1936
1874
1871
1921
2003
2095
2118
2079
1998
1920
1875
1902
1967
2045
2090
2063
1968
1867
1792
1778
1827
1904
1958
1952
1899
1827
1754
1726
1759
1835
1915
1936
1899
1813
1727
1685
1707
1786
1874
1934
1923
1856
1777
1727
1729
1799
1887
1959
1963
1895
1803
1722
1693
1715
1776
1836
1838
1793
1729
1693
1725
1838
2018
2206
2306
2298
2186
2019
1849
1738
1670
1635
1600
1526
1442
1345
1283
1309
1418
1594
1739
1833
1845
1808
1761
1750
1798
1883
1978
2027
2013
1952
1872
1829
1843
1914
2011
2081
2096
2043
1967
1906
1902
1950
2033
2119
2159
2139
2077
1994
1954
1973
2058
2145
2211
2221
2183
2117
2077
2091
2159
2256
2343
2377
2352
2302
2263
2265
2326
2421
2521
2579
2559
2503
2434
2393
2412
2466
2543
2593
2583
2512
2423
2338
2328
2365
2422
2463
2449
2379
2269
2173
2123
2137
2196
2251
2256
2197
2100
1989
1928
1936
1989
2073
2119
2108
2032
1936
1863
1861
1909
1995
2074
2089
2035
1957
1873
1843
1879
1955
2034
2084
2054
1969
1883
1827
1835
1891
1975
2032
2035
1999
1931
1863
1856
1904
1974
2032
2035
1990
1915
1843
1814
1840
1896
1939
1953
1919
1838
1747
1695
1706
1771
1845
1895
1886
1825
1738
1666
1663
1715
1808
1877
1895
1851
1765
1692
1658
1689
1773
1866
1917
1904
1838
1757
1712
1723
1777
1850
1895
1872
1791
1682
1602
1597
1660
1781
1925
2036
2110
2138
2143
2151
2161
2163
2127
2023
1846
1632
1417
1269
1220
1275
1369
1469
1533
1554
1535
1555
1607
1707
1827
1925
1967
1936
1856
1781
1759
1802
1889
1982
2029
2011
1947
1865
1811
1828
1898
1990
2070
2079
2026
1947
1886
1877
1936
2030
2116
2153
2121
2047
1981
1963
2005
2107
2207
2271
2272
2224
2165
2131
2167
2257
2371
2463
2493
2455
2394
2351
2357
2424
2518
2607
2624
2593
2501
2419
2378
2399
2455
2517
2546
2511
2417
2311
2235
2217
2256
2321
2355
2335
2243
2128
2029
1996
2021
2093
2146
2160
2108
2013
1922
1874
1895
1958
2029
2068
2032
1954
1871
1811
1831
1897
1978
2045
2045
1994
1910
1839
1818
1861
1951
2031
2055
2006
1921
1838
1791
1814
1901
1990
2046
2038
1972
1890
1831
1831
1887
1965
2019
2017
1963
1868
1785
1744
1772
1836
1897
1914
1872
1790
1707
1659
1673
1735
1813
1869
1866
1811
1745
1697
1691
1742
1808
1859
1867
1819
1744
1677
1651
1694
1783
1874
1907
1872
1790
1698
1650
1662
1729
1794
1836
1819
1771
1730
1733
1822
1985
2192
2354
2427
2389
2256
2098
1953
1846
1775
1703
1598
1456
1328
1232
1195
1239
1363
1520
1658
1723
1719
1674
1648
1676
1750
1842
1921
1939
1905
1841
1777
1758
1794
1872
1966
2010
1998
1941
1876
1839
1853
1919
2007
2073
2080
2029
1952
1893
1888
1952
2063
2146
2179
2143
2066
2001
1998
2062
2159
2252
2303
2299
2254
2193
2166
2199
2297
2414
2490
2509
2463
2385
2336
2340
2395
2480
2544
2559
2522
2429
2331
2282
2306
2366
2416
2427
2375
2282
2176
2107
2096
2143
2199
2229
2196
2115
2004
1923
1894
1935
2006
2069
2081
2028
1936
1853
1819
1852
1928
2000
2033
2007
1933
1845
1801
1819
1891
1984
2053
2057
1987
1901
1837
1826
1877
1966
2030
2055
1999
1916
1840
1820
1865
1949
2045
2100
2071
1984
1899
1840
1846
1910
1981
2023
2000
1913
1809
1727
1707
1750
1833
1904
1926
1873
1779
1686
1641
1674
1750
1842
1889
1893
1825
1744
1691
1699
1767
1847
1910
1909
1868
1791
1730
1719
1775
1850
1917
1934
1883
1792
1694
1652
1679
1751
1850
1946
1999
2021
2032
2091
2175
2265
2331
2347
2265
2096
1864
1654
1505
1454
1466
1507
1523
1498
1456
1431
1451
1535
1681
1808
1886
1902
1854
1779
1732
1748
1821
1917
1993
2006
1962
1889
1838
1821
1865
1953
2042
2082
2058
1983
1907
1872
1895
1977
2071
2138
2133
2082
2000
1959
1968
2046
2141
2224
2247
2213
2145
2076
2076
2139
2248
2346
2391
2379
2323
2269
2251
2289
2378
2475
2537
2543
2492
2407
2332
2320
2369
2448
2500
2492
2431
2339
2254
2215
2238
2292
2355
2365
2309
2207
2097
2023
2025
2074
2128
2151
2128
2057
1959
1889
1886
1944
2031
2098
2098
2032
1936
1852
1826
1865
1941
2028
2069
2046
1984
1913
1870
1893
1968
2045
2094
2066
1987
1901
1840
1842
1905
2009
2105
2127
2071
1979
1899
1872
1903
1975
2054
2092
2062
1969
1878
1819
1823
1875
1943
1986
1969
1898
1804
1733
1719
1776
1866
1936
1945
1883
1787
1711
1690
1739
1822
1895
1926
1898
1821
1745
1712
1731
1805
1904
1959
1955
1890
1797
1719
1699
1741
1812
1877
1890
1838
1771
1723
1755
1869
2032
2214
2345
2379
2320
2215
2106
2017
1971
1939
1891
1786
1626
1457
1342
1319
1389
1520
1655
1737
1744
1715
1678
1680
1733
1826
1921
1969
1946
1882
1807
1762
1788
1873
1974
2047
2064
2009
1931
1860
1853
1913
1999
2077
2095
2047
1975
1904
1873
1911
2000
2096
2154
2128
2081
2000
1958
1981
2065
2171
2233
2259
2224
2165
2127
2143
2208
2310
2399
2432
2407
2329
2256
2229
2269
2351
2434
2480
2462
2384
2295
2234
2232
2288
2362
2406
2387
2308
2199
2111
2078
2109
2180
2223
2225
2167
2071
1968
1916
1932
1991
2065
2116
2096
2010
1914
1852
1852
1915
1999
2064
2063
2005
1929
1860
1855
1897
1975
2063
2095
2061
1981
1892
1846
1872
1945
2032
2081
2057
1979
1893
1842
1863
1937
2031
2107
2111
2055
1955
1874
1847
1873
1949
2013
2033
1986
1898
1808
1757
1773
1833
1904
1942
1930
1861
1772
1702
1697
1765
1858
1931
1934
1877
1787
1712
1694
1745
1830
1904
1935
1904
1831
1744
1705
1731
1814
1898
1936
1910
1825
1727
1661
1658
1716
1803
1879
1919
1919
1911
1930
2005
2115
2219
2273
2245
2121
1936
1743
1586
1498
1483
1510
1535
1530
1502
1473
1479
1552
1667
1800
1901
1939
1919
1851
1790
1776
1821
1911
1994
2032
2003
1935
1856
1813
1845
1919
2002
2063
2064
2010
1935
1877
1877
1936
2031
2112
2128
2095
2018
1955
1947
1999
2092
2185
2238
2228
2179
2124
2095
2117
2195
2290
2364
2387
2362
2302
2245
2250
2319
2416
2496
2517
2480
2399
2315
2292
2331
2413
2480
2511
2467
2375
2272
2207
2203
2256
2325
2365
2336
2247
2135
2045
2019
2064
2129
2182
2176
2113
2017
1931
1885
1914
1984
2059
2096
2074
2000
1916
1862
1873
1948
2033
2090
2077
2015
1938
1886
1873
1927
2007
2079
2094
2041
1969
1894
1861
1883
1957
2039
2095
2079
2007
1933
1888
1905
1981
2055
2098
2081
2005
1901
1819
1795
1840
1920
1985
2011
1945
1858
1774
1732
1753
1822
1904
1943
1915
1838
1751
1711
1718
1779
1871
1931
1933
1872
1782
1715
1701
1749
1840
1918
1938
1904
1828
1748
1717
1739
1802
1869
1903
1866
1776
1678
1622
1678
1799
1963
2119
2225
2238
2182
2093
2002
1951
1925
1883
1782
1630
1455
1313
1255
1297
1421
1574
1685
1732
1723
1698
1687
1725
1814
1920
1994
2004
1961
1879
1822
1822
1879
1968
2044
2071
2028
1954
1878
1851
1878
1958
2051
2106
2105
2037
1962
1910
1927
1998
2095
2172
2183
2147
2079
2014
2014
2085
2179
2275
2321
2309
2250
2190
2175
2219
2306
2415
2487
2499
2455
2391
2345
2354
2422
2509
2581
2590
2526
2431
2335
2297
2325
2390
2449
2455
2400
2304
2210
2149
2147
2194
2256
2282
2247
2159
2055
1968
1953
1997
2067
2121
2118
2058
1953
1872
1840
1875
1955
2032
2063
2029
1951
1872
1829
1855
1933
2015
2077
2067
1998
1910
1840
1834
1887
1969
2038
2043
1983
1898
1827
1811
1859
1952
2046
2093
2064
1987
1907
1856
1867
1925
1991
2032
2015
1947
1857
1787
1776
1818
1889
1937
1931
1866
1778
1703
1675
1712
1787
1866
1897
1867
1792
1712
1664
1682
1762
1851
1903
1890
1819
1728
1663
1667
1727
1818
1897
1917
1878
1796
1703
1663
1683
1745
1813
1828
1789
1722
1658
1657
1744
1904
2105
2273
2339
2305
2191
2047
1933
1863
1810
1748
1648
1503
1357
1250
1213
1283
1424
1591
1706
1746
1742
1719
1712
1747
1829
1917
1981
1983
1922
1841
1773
1787
1845
1948
2023
2055
2015
1927
1843
1821
1871
1954
2047
2096
2074
2003
1937
1906
1930
2001
2103
2167
2170
2119
2046
2000
2011
2086
2187
2279
2320
2302
2245
2191
2187
2241
2352
2457
2528
2537
2490
2413
2357
2368
2435
2515
2559
2559
2499
2402
2320
2301
2341
2410
2471
2475
2419
2316
2204
2137
2138
2182
2227
2245
2197
2109
1997
1924
1920
1971
2043
2095
2082
2017
1920
1847
1826
1872
1952
2027
2062
2018
1935
1845
1793
1811
1883
1964
2001
1986
1923
1842
1794
1807
1875
1963
2012
2001
1937
1855
1785
1775
1815
1895
1975
2013
1990
1930
1857
1831
1866
1938
2013
2043
2014
1932
1840
1776
1771
1831
1902
1939
1924
1853
1755
1671
1647
1682
1761
1837
1865
1839
1759
1676
1635
1663
1737
1825
1872
1856
1785
1701
1653
1667
1732
1826
1890
1898
1840
1762
1697
1681
1725
1795
1855
1860
1807
1712
1621
1596
1652
1786
1954
2106
2198
2239
2224
2172
2144
2133
2113
2044
1901
1686
1459
1279
1206
1234
1328
1427
1502
1535
1535
1531
1535
1615
1722
1829
1899
1903
1847
1765
1712
1719
1786
1889
1975
1999
1952
1879
1811
1805
1855
1941
2018
2062
2026
1948
1871
1839
1872
1959
2055
2113
2112
2054
1978
1933
1947
2021
2126
2207
2235
2206
2148
2103
2109
2174
2281
2377
2433
2426
2368
2288
2245
2273
2367
2464
2532
2537
2466
2370
2293
2287
2335
2418
2480
2473
2403
2301
2207
2163
2186
2255
2311
2315
2249
2142
2023
1947
1937
1993
2071
2126
2126
2045
1946
1863
1840
1886
1969
2032
2047
1996
1911
1825
1791
1825
1905
1987
2021
1994
1921
1840
1794
1807
1882
1974
2031
2021
1954
1863
1794
1793
1846
1924
2000
2010
1987
1911
1840
1812
1842
1925
2009
2064
2037
1956
1857
1805
1807
1860
1931
1979
1965
1889
1783
1701
1680
1734
1813
1882
1904
1858
1787
1697
1659
1686
1771
1858
1919
1906
1840
1755
1700
1712
1779
1885
1952
1951
1878
1788
1719
1718
1763
1840
1904
1911
1864
1772
1669
1621
1661
1770
1904
2027
2096
2116
2125
2144
2180
2239
2279
2258
2149
1953
1730
1534
1413
1382
1424
1491
1535
1535
1508
1489
1520
1600
1712
1825
1895
1904
1843
1773
1728
1746
1827
1934
2009
2029
1974
1883
1814
1808
1863
1946
2032
2065
2031
1954
1873
1839
1871
1962
2064
2126
2119
2059
1974
1927
1950
2029
2128
2207
2221
2189
2127
2077
2074
2138
2230
2335
2381
2357
2289
2219
2194
2247
2351
2455
2521
2517
2451
2358
2294
2287
2331
2407
2465
2464
2402
2304
2223
2179
2202
2261
2317
2318
2256
2150
2037
1973
1981
2034
2113
2160
2143
2058
1942
1859
1845
1903
1986
2064
2071
2013
1922
1844
1823
1868
1957
2047
2083
2059
1968
1872
1821
1840
1914
2002
2064
2047
1982
1898
1831
1815
1856
1934
2001
2028
1985
1917
1856
1839
1888
1983
2074
2105
2063
1968
1874
1826
1841
1904
1972
2008
1977
1895
1793
1712
1707
1759
1851
1920
1930
1867
1776
1698
1680
1727
1812
1895
1936
1914
1837
1747
1696
1709
1775
1865
1921
1923
1863
1779
1725
1718
1776
1846
1904
1915
1867
1776
1680
1633
1668
1770
1889
1980
2038
2063
2069
2087
2128
2181
2221
2193
2086
1903
1691
1504
1401
1377
1426
1493
1535
1534
1520
1505
1526
1616
1742
1864
1935
1927
1860
1787
1744
1772
1845
1939
2007
2012
1951
1870
1806
1810
1889
1987
2064
2085
2046
1971
1899
1872
1917
2001
2095
2139
2121
2061
1984
1947
1968
2045
2143
2215
2229
2175
2096
2039
2067
2146
2253
2352
2399
2380
2311
2246
2237
2288
2371
2463
2503
2483
2409
2326
2275
2288
2352
2434
2487
2478
2397
2293
2205
2174
2206
2266
2318
2313
2251
2146
2035
1993
2011
2078
2140
2171
2141
2059
1955
1899
1899
1951
2028
2083
2075
2007
1917
1839
1820
1867
1957
2037
2071
2030
1954
1877
1853
1885
1962
2039
2082
2064
1986
1902
1843
1856
1917
2000
2069
2081
2030
1953
1887
1886
1935
2015
2095
2113
2064
1968
1874
1828
1840
1902
1973
2006
1983
1904
1798
1730
1722
1776
1857
1925
1934
1877
1793
1728
1712
1751
1827
1901
1932
1894
1818
1738
1702
1738
1811
1899
1949
1932
1868
1782
1727
1726
1783
1861
1919
1918
1845
1734
1646
1617
1674
1787
1919
2021
2079
2089
2060
2032
2026
2032
2031
1983
1863
1680
1494
1360
1321
1360
1456
1571
1645
1663
1648
1623
1657
1742
1855
1962
2010
1995
1930
1853
1815
1845
1922
2010
2065
2061
1999
1923
1873
1883
1947
2038
2115
2128
2091
2014
1959
1947
1995
2083
2167
2208
2187
2117
2038
2004
2043
2135
2243
2314
2323
2283
2207
2160
2173
2256
2355
2449
2488
2469
2400
2335
2320
2376
2470
2555
2591
2547
2469
2382
2331
2345
2415
2478
2527
2506
2418
2315
2222
2183
2209
2259
2298
2289
2224
2119
2026
1975
1985
2047
2122
2153
2126
2055
1951
1890
1890
1945
2007
2062
2044
1981
1897
1840
1840
1896
1978
2053
2073
2015
1934
1851
1824
1866
1940
2019
2059
2027
1955
1872
1815
1830
1895
1978
2034
2030
1973
1898
1851
1856
1921
2014
2084
2096
2031
1933
1840
1794
1811
1873
1942
1973
1939
1854
1763
1706
1702
1771
1849
1902
1894
1830
1743
1679
1665
1715
1808
1883
1907
1863
1782
1711
1679
1713
1791
1869
1915
1898
1823
1744
1695
1706
1770
1845
1893
1868
1786
1671
1586
1568
1623
1741
1866
1963
2021
2059
2056
2062
2064
2079
2064
1993
1855
1661
1457
1303
1251
1294
1383
1488
1557
1586
1585
1584
1626
1716
1843
1941
1983
1964
1890
1815
1783
1811
1899
1991
2059
2055
1984
1903
1850
1859
1931
2021
2096
2109
2061
1977
1910
1906
1969
2064
2153
2183
2151
2083
2013
1991
2032
2118
2218
2287
2295
2251
2189
2159
2183
2270
2379
2471
2508
2480
2421
2372
2381
2441
2544
2630
2661
2628
2547
2460
2404
2415
2475
2544
2559
2531
2444
2341
2256
2227
2259
2321
2368
2352
2279
2173
2074
2027
2038
2105
2165
2176
2127
2032
1938
1891
1904
1971
2047
2097
2080
2000
1914
1853
1851
1914
1995
2059
2064
2023
1941
1871
1854
1898
1977
2055
2078
2032
1949
1863
1823
1840
1910
1985
2032
2023
1968
1899
1854
1870
1936
2019
2089
2094
2032
1936
1854
1815
1840
1911
1978
1997
1954
1860
1758
1699
1706
1755
1823
1870
1857
1798
1721
1655
1663
1723
1805
1871
1871
1839
1747
1673
1648
1680
1762
1845
1875
1852
1790
1715
1668
1696
1767
1839
1874
1854
1775
1671
1594
1571
1616
1703
1808
1885
1919
1955
2002
2096
2191
2260
2278
2219
2078
1876
1664
1478
1370
1344
1369
1416
1429
1419
1408
1426
1499
1626
1775
1886
1929
1900
1825
1750
1728
1766
1854
1937
1984
1978
1918
1843
1801
1818
1886
1979
2053
2058
2000
1926
1863
1858
1923
2005
2091
2126
2096
2013
1939
1918
1968
2070
2162
2221
2219
2160
2109
2083
2118
2218
2331
2416
2435
2404
2346
2302
2309
2377
2466
2541
2559
2540
2460
2378
2333
2353
2419
2497
2527
2497
2416
2320
2245
2224
2263
2320
2353
2334
2254
2146
2043
1995
2014
2078
2131
2151
2100
2005
1910
1871
1887
1951
2027
2065
2032
1957
1865
1799
1808
1869
1955
2011
2007
1946
1862
1787
1775
1810
1893
1973
2003
1971
1898
1808
1764
1775
1835
1907
1946
1920
1857
1778
1730
1746
1829
1931
2010
2021
1967
1873
1795
1766
1806
1881
1958
1979
1933
1840
1749
1702
1711
1765
1829
1866
1843
1776
1684
1627
1630
1697
1786
1861
1875
1823
1725
1646
1617
1663
1744
1826
1862
1835
1757
1678
1636
1661
1734
1828
1886
1878
1809
1717
1647
1630
1666
1733
1776
1779
1739
1702
1702
1770
1916
2110
2261
2325
2286
2159
1989
1831
1712
1627
1572
1503
1409
1312
1227
1195
1238
1360
1526
1670
1749
1757
1706
1663
1667
1731
1829
1921
1967
1936
1877
1801
1761
1787
1862
1943
2002
2000
1948
1867
1808
1813
1888
1982
2071
2097
2065
1998
1922
1906
1943
2046
2139
2189
2171
2111
2038
2005
2057
2141
2256
2319
2327
2286
2233
2193
2217
2303
2410
2490
2524
2494
2423
2357
2336
2369
2445
2527
2559
2529
2457
2381
2321
2334
2383
2439
2465
2435
2352
2237
2145
2113
2130
2186
2223
2207
2142
2047
1951
1910
1933
2003
2067
2095
2064
1984
1903
1863
1867
1921
2000
2058
2055
1984
1903
1825
1810
1859
1946
2006
2019
1977
1898
1827
1799
1831
1907
1989
2030
2007
1927
1834
1777
1791
1865
1960
2032
2045
2000
1920
1862
1847
1885
1965
2030
2035
1981
1895
1808
1767
1794
1866
1936
1963
1923
1835
1742
1680
1684
1744
1829
1889
1886
1823
1738
1669
1653
1712
1803
1887
1917
1881
1808
1729
1697
1727
1806
1885
1931
1916
1851
1760
1695
1692
1744
1831
1894
1898
1840
1751
1702
1733
1850
2007
2191
2320
2361
2303
2193
2096
2023
1968
1909
1808
1666
1495
1354
1264
1266
1349
1485
1616
1695
1703
1664
1636
1663
1739
1841
1936
1987
1956
1881
1807
1781
1823
1910
2010
2070
2062
1994
1922
1872
1887
1951
2033
2106
2128
2100
2027
1955
1934
1971
2058
2138
2175
2151
2086
2014
1993
2034
2133
2237
2303
2314
2271
2206
2174
2198
2286
2391
2477
2507
2475
2407
2341
2321
2379
2470
2557
2597
2559
2487
2397
2337
2338
2384
2455
2491
2465
2379
2281
2202
2178
2209
2261
2301
2286
2214
2101
1999
1956
1984
2061
2124
2140
2094
2000
1919
1867
1875
1942
2032
2089
2077
2003
1919
1857
1857
1919
1996
2067
2083
2032
1951
1872
1849
1883
1957
2029
2061
2032
1951
1873
1811
1828
1900
1986
2064
2067
2025
1946
1888
1881
1919
2004
2065
2062
1991
1902
1815
1784
1819
1890
1957
1982
1940
1855
1773
1706
1713
1776
1853
1904
1897
1843
1775
1714
1713
1759
1839
1899
1917
1875
1808
1743
1718
1746
1825
1903
1939
1923
1861
1785
1731
1732
1781
1851
1883
1881
1806
1709
1643
1662
1754
1901
2047
2161
2206
2185
2112
2035
1995
1971
1935
1859
1727
1559
1392
1296
1288
1382
1518
1633
1698
1696
1665
1642
1675
1761
1871
1970
2003
1975
1907
1840
1814
1859
1951
2043
2096
2066
1989
1904
1855
1872
1943
2039
2112
2121
2073
1996
1932
1921
1971
2067
2153
2186
2159
2093
2016
1997
2047
2143
2246
2313
2320
2265
2197
2166
2192
2272
2371
2448
2481
2457
2386
2334
2333
2387
2480
2547
2559
2533
2447
2358
2320
2338
2403
2470
2499
2465
2368
2260
2179
2160
2199
2261
2308
2291
2218
2110
2009
1978
2013
2081
2142
2155
2114
2023
1936
1894
1914
1986
2067
2111
2098
2026
1936
1876
1887
1953
2032
2099
2109
2047
1967
1885
1859
1898
1973
2055
2078
2038
1955
1875
1842
1879
1968
2065
2119
2101
2023
1936
1885
1887
1937
2014
2076
2074
2007
1918
1833
1807
1839
1903
1955
1963
1905
1817
1733
1692
1712
1787
1872
1922
1908
1844
1756
1698
1699
1754
1840
1922
1949
1904
1819
1744
1719
1755
1838
1917
1954
1930
1854
1762
1696
1697
1745
1811
1845
1818
1743
1664
1638
1697
1839
2016
2191
2275
2263
2166
2023
1904
1823
1772
1723
1647
1522
1403
1312
1268
1322
1443
1603
1745
1819
1826
1791
1773
1807
1883
1975
2047
2064
2011
1933
1856
1840
1889
1982
2066
2110
2083
2009
1935
1890
1904
1974
2066
2132
2140
2102
2032
1983
1996
2066
2162
2240
2260
2229
2162
2096
2075
2119
2215
2326
2400
2393
2349
2303
2286
2331
2428
2539
2614
2624
2559
2494
2443
2438
2486
2579
2655
2673
2624
2522
2423
2377
2389
2448
2506
2527
2480
2389
2281
2203
2191
2237
2288
2317
2288
2206
2103
2013
1986
2015
2089
2139
2145
2096
2001
1926
1891
1924
2000
2080
2112
2087
2005
1926
1872
1885
1943
2021
2080
2071
2002
1923
1855
1840
1874
1951
2015
2035
2002
1930
1859
1829
1861
1939
2032
2083
2076
2000
1918
1861
1867
1922
1995
2043
2037
1983
1892
1808
1774
1804
1862
1918
1932
1886
1806
1726
1683
1710
1777
1855
1899
1879
1819
1744
1685
1692
1753
1835
1895
1904
1855
1776
1712
1703
1749
1837
1919
1945
1914
1831
1740
1680
1684
1738
1795
1808
1765
1684
1615
1600
1670
1819
2016
2207
2320
2331
2256
2131
2020
1946
1889
1827
1719
1570
1407
1287
1234
1279
1393
1535
1671
1728
1721
1687
1671
1711
1796
1901
1973
1976
1923
1846
1783
1774
1825
1909
1984
2017
1989
1923
1859
1838
1874
1949
2023
2082
2083
2023
1949
1901
1908
1975
2080
2163
2192
2161
2092
2027
2017
2082
2177
2275
2327
2321
2279
2227
2211
2256
2347
2446
2513
2525
2482
2422
2379
2391
2447
2529
2602
2609
2547
2453
2362
2322
2356
2420
2480
2490
2443
2342
2236
2164
2162
2210
2266
2291
2256
2173
2070
1981
1955
1994
2064
2118
2128
2064
1957
1867
1825
1856
1926
1993
2026
1991
1927
1856
1822
1840
1898
1968
2009
1994
1929
1851
1798
1799
1854
1932
1999
2010
1955
1868
1789
1770
1817
1911
1999
2042
2019
1950
1861
1810
1819
1877
1949
1991
1979
1904
1808
1733
1717
1759
1829
1879
1874
1823
1731
1651
1622
1661
1737
1817
1850
1814
1742
1659
1615
1633
1715
1807
1867
1869
1810
1733
1665
1649
1698
1786
1859
1889
1853
1768
1687
1648
1667
1738
1808
1831
1793
1705
1622
1603
1680
1823
2015
2192
2277
2256
2161
2039
1936
1871
1810
1744
1636
1485
1328
1218
1186
1245
1371
1523
1653
1708
1701
1664
1649
1685
1779
1885
1961
1970
1914
1829
1757
1756
1815
1907
1975
2004
1974
1905
1837
1809
1850
1925
2003
2064
2067
2007
1933
1887
1906
1979
2082
2154
2179
2146
2080
2020
2026
2101
2203
2295
2333
2322
2265
2207
2192
2245
2349
2449
2527
2541
2496
2431
2385
2395
2451
2528
2593
2594
2526
2431
2351
2331
2368
2435
2498
2503
2441
2341
2238
2177
2175
2209
2255
2269
2232
2139
2022
1947
1940
1999
2081
2135
2135
2065
1967
1878
1853
1889
1966
2032
2059
2016
1936
1854
1829
1859
1935
2013
2062
2034
1955
1863
1805
1807
1871
1951
2013
2029
1981
1903
1826
1808
1856
1942
2035
2072
2039
1965
1880
1837
1853
1915
1985
2025
2005
1937
1854
1787
1780
1821
1888
1936
1920
1853
1766
1698
1671
1710
1783
1858
1890
1857
1786
1709
1664
1684
1751
1834
1883
1874
1817
1735
1680
1683
1762
1858
1935
1955
1910
1815
1732
1687
1714
1787
1855
1877
1829
1740
1665
1659
1742
1904
2096
2261
2362
2356
2268
2161
2074
2023
1966
1887
1762
1591
1413
1280
1230
1275
1386
1521
1634
1679
1674
1648
1649
1703
1804
1919
1987
1985
1924
1837
1777
1776
1840
1939
2025
2058
2011
1931
1857
1842
1891
1991
2100
2147
2117
2031
1938
1899
1927
2015
2127
2195
2202
2134
2039
1990
2000
2093
2203
2303
2339
2304
2226
2156
2150
2224
2352
2469
2539
2534
2464
2382
2323
2341
2422
2526
2602
2606
2530
2430
2353
2324
2378
2465
2535
2544
2474
2338
2218
2161
2176
2231
2301
2325
2271
2149
2022
1942
1942
2015
2117
2176
2160
2064
1931
1835
1811
1875
1979
2085
2108
2055
1950
1856
1820
1870
1969
2070
2117
2079
1974
1866
1807
1817
1902
2010
2082
2067
1982
1872
1786
1781
1861
1984
2095
2115
2057
1935
1833
1791
1827
1920
2010
2055
2007
1906
1790
1711
1727
1809
1914
1974
1949
1855
1734
1637
1621
1693
1821
1919
1935
1867
1755
1653
1615
1662
1770
1887
1952
1927
1839
1727
1663
1682
1770
1872
1946
1950
1873
1760
1653
1629
1686
1783
1871
1894
1841
1750
1682
1697
1815
2013
2233
2389
2417
2320
2169
2013
1917
1874
1851
1809
1707
1531
1359
1247
1232
1329
1494
1666
1774
1787
1729
1659
1643
1705
1829
1958
2032
2011
1917
1804
1733
1745
1829
1937
2030
2054
2002
1909
1823
1807
1871
1968
2065
2103
2067
1979
1887
1850
1904
2018
2145
2218
2207
2128
2023
1965
1986
2087
2219
2322
2346
2310
2234
2163
2170
2241
2363
2479
2540
2511
2430
2340
2288
2325
2425
2526
2591
2559
2475
2359
2282
2262
2315
2411
2477
2477
2385
2258
2148
2099
2128
2217
2298
2309
2235
2102
1968
1904
1924
2006
2111
2165
2133
2032
1911
1828
1831
1907
2019
2106
2118
2053
1936
1840
1819
1882
2000
2111
2147
2107
1999
1884
1821
1846
1931
2029
2096
2077
1993
1879
1810
1823
1915
2035
2141
2157
2082
1952
1840
1794
1829
1923
2019
2069
2026
1921
1803
1724
1728
1796
1891
1952
1930
1846
1738
1655
1659
1741
1853
1946
1959
1894
1783
1691
1664
1718
1831
1937
1984
1943
1842
1738
1679
1712
1809
1920
1984
1962
1855
1718
1616
1600
1661
1763
1853
1891
1867
1820
1815
1888
2064
2283
2457
2522
2453
2269
2042
1844
1718
1677
1664
1639
1573
1467
1359
1301
1344
1472
1648
1799
1866
1857
1795
1725
1702
1754
1863
1981
2043
2014
1923
1812
1766
1795
1893
2000
2085
2080
1999
1893
1813
1806
1880
1999
2111
2142
2093
1991
1904
1873
1921
2032
2160
2230
2213
2128
2029
1981
2015
2128
2260
2367
2397
2348
2261
2199
2207
2291
2412
2516
2559
2519
2425
2320
2274
2314
2416
2526
2581
2537
2427
2298
2205
2205
2275
2370
2431
2413
2318
2192
2090
2061
2099
2187
2261
2273
2205
2083
1942
1877
1911
2006
2119
2176
2155
2045
1930
1851
1858
1941
2059
2143
2145
2071
1950
1856
1833
1889
1998
2095
2129
2086
1978
1882
1827
1846
1937
2041
2105
2090
2004
1904
1834
1840
1925
2035
2125
2130
2059
1934
1826
1789
1838
1926
2009
2029
1969
1851
1726
1665
1691
1787
1888
1958
1936
1846
1729
1648
1661
1728
1837
1919
1927
1866
1757
1668
1648
1715
1830
1919
1969
1916
1827
1735
1691
1727
1817
1904
1951
1922
1823
1699
1601
1587
1653
1746
1849
1906
1910
1897
1907
1973
2079
2183
2235
2193
2059
1850
1629
1465
1393
1422
1485
1535
1554
1514
1469
1469
1535
1682
1850
1971
2015
1981
1889
1805
1781
1837
1946
2045
2095
2059
1959
1857
1812
1855
1953
2068
2147
2131
2045
1941
1872
1874
1959
2081
2171
2191
2138
2041
1961
1942
2002
2127
2245
2307
2292
2222
2135
2102
2149
2255
2386
2482
2496
2442
2351
2282
2288
2380
2501
2611
2643
2587
2475
2378
2343
2384
2479
2559
2602
2545
2432
2303
2220
2219
2278
2368
2421
2390
2293
2160
2047
2011
2064
2147
2221
2229
2164
2047
1934
1879
1911
2000
2094
2137
2102
1997
1882
1819
1840
1928
2034
2111
2104
2020
1907
1825
1821
1894
2000
2090
2099
2032
1931
1828
1781
1824
1923
2031
2098
2078
1993
1890
1829
1845
1933
2039
2115
2108
2019
1904
1808
1779
1825
1911
1990
2000
1933
1808
1683
1634
1667
1766
1872
1920
1894
1797
1683
1612
1632
1718
1841
1930
1935
1865
1763
1681
1665
1726
1834
1927
1952
1901
1793
1694
1650
1681
1773
1867
1910
1873
1765
1638
1535
1534
1618
1746
1875
1959
1985
2000
2031
2097
2185
2258
2275
2199
2031
1802
1574
1399
1327
1360
1450
1516
1532
1511
1483
1485
1558
1686
1837
1941
1973
1922
1837
1755
1735
1797
1904
2000
2047
2003
1907
1808
1772
1808
1921
2033
2109
2103
2023
1920
1851
1861
1948
2070
2161
2177
2121
2030
1936
1933
1993
2129
2253
2304
2291
2203
2115
2080
2135
2263
2407
2490
2486
2421
2337
2283
2307
2409
2527
2624
2640
2581
2459
2358
2317
2363
2464
2559
2605
2547
2433
2311
2237
2240
2306
2384
2431
2394
2282
2145
2032
2007
2065
2155
2221
2223
2145
2017
1920
1879
1927
2017
2110
2133
2085
1975
1865
1804
1829
1921
2031
2101
2087
2000
1887
1805
1802
1872
1974
2066
2078
2001
1893
1791
1751
1805
1919
2032
2093
2067
1986
1893
1837
1861
1955
2064
2119
2097
2000
1873
1781
1769
1833
1927
2004
2017
1936
1803
1689
1649
1693
1792
1887
1934
1897
1798
1685
1622
1634
1726
1839
1923
1926
1840
1724
1639
1634
1699
1808
1905
1936
1885
1790
1691
1667
1714
1808
1895
1927
1883
1766
1626
1531
1527
1614
1738
1856
1920
1947
1965
2000
2047
2114
2171
2174
2088
1915
1693
1475
1338
1299
1360
1456
1523
1535
1519
1481
1485
1566
1706
1856
1967
1988
1931
1839
1761
1753
1823
1931
2022
2047
1995
1904
1813
1778
1832
1939
2061
2113
2095
2004
1904
1845
1869
1961
2081
2170
2192
2133
2023
1937
1936
2011
2137
2241
2284
2247
2167
2092
2074
2140
2258
2387
2470
2480
2416
2332
2278
2304
2387
2503
2594
2602
2519
2409
2311
2289
2350
2455
2550
2559
2501
2377
2251
2185
2201
2272
2346
2375
2323
2211
2072
1968
1957
2020
2123
2183
2176
2087
1963
1856
1827
1882
1984
2069
2095
2035
1936
1841
1793
1822
1914
2011
2076
2062
1967
1851
1774
1766
1840
1941
2027
2037
1968
1862
1770
1741
1791
1898
2006
2047
1999
1901
1802
1767
1808
1904
2003
2066
2032
1945
1825
1744
1741
1793
1904
1979
1974
1902
1786
1682
1645
1693
1787
1877
1918
1872
1767
1654
1599
1627
1728
1841
1919
1906
1818
1712
1643
1646
1725
1829
1910
1925
1862
1763
1679
1655
1715
1824
1919
1938
1889
1778
1659
1582
1584
1659
1761
1849
1889
1879
1862
1902
2010
2173
2315
2383
2333
2167
1928
1680
1499
1417
1414
1454
1478
1450
1387
1323
1315
1417
1594
1776
1904
1935
1877
1780
1696
1703
1791
1920
2019
2043
1981
1869
1766
1731
1782
1903
2025
2085
2064
1969
1872
1820
1848
1936
2062
2142
2141
2075
1970
1907
1911
1989
2116
2227
2267
2225
2133
2038
2014
2083
2208
2341
2423
2416
2349
2269
2213
2251
2357
2496
2596
2608
2537
2431
2342
2327
2388
2490
2579
2599
2526
2401
2288
2231
2251
2329
2413
2441
2384
2266
2124
2021
2003
2065
2160
2221
2207
2122
1995
1901
1875
1935
2032
2126
2144
2080
1964
1853
1798
1840
1942
2055
2112
2079
1984
1861
1781
1791
1871
1985
2075
2070
1982
1872
1776
1765
1818
1920
2009
2045
2009
1918
1823
1795
1841
1943
2064
2125
2095
1989
1863
1783
1783
1861
1968
2035
2029
1952
1829
1728
1700
1741
1825
1908
1939
1898
1792
1684
1638
1669
1771
1882
1941
1917
1821
1711
1643
1650
1744
1865
1950
1960
1886
1789
1706
1693
1748
1858
1959
1997
1936
1809
1686
1629
1651
1737
1839
1911
1909
1871
1820
1825
1934
2128
2334
2458
2455
2349
2160
1946
1776
1677
1642
1622
1578
1485
1371
1271
1247
1332
1497
1681
1808
1853
1798
1719
1678
1699
1799
1920
2004
2023
1949
1842
1769
1757
1823
1943
2063
2111
2079
1975
1871
1814
1852
1957
2080
2147
2138
2060
1954
1890
1910
1999
2111
2201
2224
2171
2078
1991
1970
2047
2177
2305
2370
2355
2283
2197
2160
2212
2320
2448
2538
2536
2463
2355
2293
2303
2371
2480
2559
2579
2498
2382
2266
2222
2256
2347
2431
2454
2398
2279
2157
2071
2078
2145
2226
2267
2238
2137
2000
1902
1877
1936
2032
2111
2115
2044
1938
1843
1809
1856
1964
2065
2115
2077
1984
1882
1819
1839
1930
2053
2128
2123
2041
1920
1822
1807
1876
1985
2093
2117
2064
1954
1862
1837
1893
1998
2108
2163
2123
2010
1890
1822
1827
1904
1995
2059
2043
1952
1828
1728
1710
1760
1854
1936
1957
1891
1778
1679
1643
1690
1794
1902
1958
1931
1845
1746
1693
1714
1794
1903
1978
1968
1890
1779
1695
1683
1753
1869
1963
1977
1909
1795
1680
1639
1683
1778
1872
1920
1904
1841
1779
1785
1891
2082
2268
2377
2367
2231
2027
1829
1695
1634
1623
1623
1600
1519
1422
1344
1335
1431
1600
1767
1872
1895
1846
1773
1729
1759
1854
1968
2047
2047
1984
1887
1808
1797
1856
1965
2070
2116
2075
1978
1879
1834
1877
1987
2107
2170
2157
2071
1966
1897
1917
2010
2149
2240
2266
2213
2118
2030
2016
2091
2218
2341
2400
2373
2291
2213
2189
2251
2373
2502
2585
2559
2487
2384
2308
2305
2379
2482
2559
2559
2495
2369
2257
2224
2259
2350
2427
2449
2385
2267
2147
2080
2081
2151
2225
2271
2229
2123
1994
1904
1891
1952
2059
2145
2160
2094
1971
1863
1827
1873
1984
2094
2139
2109
2003
1903
1840
1872
1967
2077
2130
2122
2023
1908
1826
1817
1894
1997
2092
2107
2046
1945
1856
1839
1901
2005
2112
2153
2103
1993
1872
1803
1817
1901
1995
2061
2045
1955
1823
1709
1681
1740
1847
1931
1942
1869
1754
1659
1629
1686
1798
1906
1958
1927
1834
1726
1665
1696
1795
1904
1968
1947
1859
1750
1677
1680
1753
1867
1951
1959
1887
1770
1653
1601
1631
1713
1808
1858
1847
1792
1746
1767
1896
2081
2241
2315
2259
2099
1885
1693
1572
1523
1535
1554
1535
1476
1394
1335
1360
1472
1648
1813
1915
1922
1861
1782
1739
1766
1861
1977
2060
2066
1997
1889
1801
1790
1858
1974
2086
2126
2079
1978
1889
1855
1894
2000
2119
2182
2163
2085
1987
1935
1954
2053
2171
2259
2285
2223
2130
2071
2083
2165
2291
2406
2456
2430
2349
2266
2250
2311
2434
2559
2651
2640
2546
2433
2361
2384
2471
2559
2633
2621
2522
2389
2288
2256
2311
2397
2480
2486
2416
2282
2143
2079
2097
2176
2257
2295
2256
2148
2021
1930
1927
1997
2095
2165
2160
2081
1955
1859
1841
1894
1991
2096
2127
2080
1972
1864
1808
1842
1932
2035
2096
2069
1975
1866
1792
1793
1872
1979
2067
2079
2011
1904
1823
1807
1875
1983
2080
2117
2068
1959
1856
1794
1821
1911
2000
2059
2020
1916
1783
1686
1682
1744
1840
1919
1920
1853
1738
1646
1616
1667
1767
1870
1906
1872
1777
1678
1635
1675
1773
1872
1926
1905
1819
1715
1643
1651
1727
1841
1926
1943
1873
1749
1641
1597
1627
1707
1779
1793
1739
1637
1566
1575
1693
1906
2148
2320
2353
2256
2085
1904
1781
1731
1712
1684
1600
1451
1297
1200
1200
1305
1486
1680
1803
1831
1788
1727
1699
1734
1840
1965
2032
2010
1936
1835
1763
1775
1857
1979
2074
2097
2039
1943
1855
1828
1881
1986
2102
2158
2129
2042
1945
1894
1923
2019
2138
2222
2227
2165
2071
2001
2015
2109
2245
2359
2416
2383
2305
2230
2223
2289
2415
2531
2608
2592
2503
2412
2369
2401
2492
2605
2669
2647
2557
2443
2352
2326
2375
2465
2538
2542
2463
2330
2203
2142
2153
2223
2294
2318
2268
2149
2019
1939
1940
2011
2109
2166
2149
2059
1931
1839
1813
1881
1989
2087
2107
2041
1927
1817
1765
1801
1901
2001
2064
2032
1936
1827
1748
1754
1837
1947
2028
2023
1949
1840
1750
1739
1809
1931
2045
2086
2034
1935
1829
1783
1813
1901
1986
2031
1994
1887
1769
1683
1692
1762
1847
1911
1904
1811
1696
1606
1589
1650
1759
1854
1889
1843
1738
1630
1581
1611
1709
1818
1887
1871
1786
1682
1617
1631
1715
1823
1906
1919
1854
1748
1653
1616
1664
1754
1835
1851
1783
1648
1522
1473
1523
1669
1853
2011
2117
2158
2133
2094
2073
2075
2082
2035
1909
1705
1457
1266
1185
1218
1334
1476
1584
1616
1595
1554
1567
1650
1783
1910
1986
1968
1885
1782
1715
1725
1803
1908
2000
2023
1971
1872
1781
1761
1821
1926
2032
2087
2064
1984
1890
1840
1867
1959
2085
2173
2166
2093
1985
1918
1925
2022
2155
2256
2301
2258
2183
2121
2122
2198
2321
2448
2513
2501
2429
2349
2304
2327
2416
2527
2608
2605
2513
2406
2326
2320
2383
2480
2555
2559
2482
2359
2237
2177
2197
2271
2350
2358
2294
2181
2059
1968
1965
2032
2124
2174
2145
2054
1936
1855
1842
1904
2000
2084
2096
2031
1923
1820
1783
1825
1926
2027
2075
2035
1935
1827
1759
1778
1865
1973
2047
2044
1961
1846
1759
1745
1808
1905
1996
2019
1969
1877
1791
1775
1830
1946
2063
2110
2066
1951
1826
1761
1780
1867
1967
2019
1995
1902
1765
1659
1630
1695
1811
1913
1936
1873
1769
1669
1627
1671
1773
1875
1934
1906
1809
1712
1649
1667
1746
1854
1927
1931
1866
1752
1664
1648
1717
1835
1936
1968
1905
1792
1680
1624
1648
1728
1824
1891
1906
1887
1859
1901
2032
2239
2423
2519
2487
2334
2099
1856
1671
1583
1552
1535
1506
1445
1347
1274
1280
1392
1582
1749
1857
1870
1808
1723
1669
1693
1786
1905
1997
2011
1951
1845
1769
1760
1831
1950
2059
2099
2061
1965
1869
1825
1866
1957
2069
2133
2127
2045
1951
1898
1917
2006
2127
2214
2233
2179
2096
2025
2031
2117
2250
2381
2443
2419
2338
2259
2231
2286
2397
2522
2613
2618
2544
2444
2362
2356
2430
2531
2619
2629
2555
2445
2345
2307
2347
2424
2497
2509
2432
2297
2160
2090
2097
2164
2247
2288
2245
2133
1991
1895
1875
1940
2045
2138
2153
2094
1975
1877
1838
1873
1970
2078
2115
2082
1981
1863
1791
1810
1896
2013
2090
2077
1988
1872
1793
1792
1862
1969
2057
2074
2013
1909
1823
1804
1872
1983
2096
2139
2098
1994
1874
1807
1813
1892
1989
2058
2027
1934
1814
1719
1695
1755
1850
1925
1947
1885
1776
1663
1615
1663
1767
1879
1937
1904
1801
1682
1616
1645
1738
1849
1920
1915
1844
1742
1669
1664
1738
1851
1942
1967
1910
1802
1696
1645
1667
1745
1829
1860
1829
1743
1664
1665
1776
1970
2214
2414
2506
2465
2329
2167
2047
1979
1943
1890
1779
1616
1439
1305
1259
1319
1470
1639
1757
1779
1733
1663
1632
1675
1784
1905
1986
1987
1922
1823
1748
1743
1808
1922
2018
2058
2003
1907
1817
1778
1827
1936
2045
2106
2085
1998
1902
1840
1861
1955
2075
2161
2176
2119
2027
1950
1942
2020
2148
2270
2320
2288
2210
2128
2111
2174
2296
2427
2509
2496
2416
2314
2249
2267
2352
2462
2543
2544
2471
2363
2270
2240
2287
2371
2445
2459
2393
2265
2143
2081
2097
2186
2274
2307
2265
2155
2017
1925
1918
1989
2094
2154
2154
2078
1965
1872
1849
1903
1999
2093
2118
2077
1970
1862
1810
1840
1936
2045
2107
2083
1985
1877
1807
1813
1898
2014
2101
2098
2006
1890
1792
1778
1850
1974
2093
2128
2091
2001
1904
1843
1862
1939
2037
2095
2073
1974
1853
1773
1765
1823
1915
1973
1962
1893
1778
1682
1651
1705
1808
1907
1950
1911
1808
1701
1650
1681
1779
1894
1962
1943
1863
1759
1682
1681
1746
1849
1938
1968
1918
1814
1723
1691
1737
1824
1911
1943
1901
1792
1687
1623
1649
1746
1888
2023
2112
2114
2058
1985
1945
1954
1983
1985
1909
1753
1552
1367
1287
1341
1461
1617
1715
1747
1707
1648
1634
1702
1830
1974
2035
2033
1959
1863
1795
1811
1898
2000
2091
2113
2064
1959
1856
1821
1872
1979
2091
2141
2128
2054
1947
1891
1917
2008
2128
2202
2206
2133
2032
1966
1974
2058
2176
2282
2320
2288
2209
2128
2112
2177
2299
2418
2490
2483
2415
2318
2256
2277
2367
2479
2549
2547
2473
2361
2288
2277
2334
2423
2496
2495
2416
2287
2163
2113
2147
2242
2337
2368
2320
2206
2073
1986
1989
2064
2165
2227
2211
2125
2000
1903
1883
1945
2058
2146
2167
2112
1997
1889
1833
1862
1955
2064
2112
2087
1999
1895
1830
1843
1922
2019
2097
2097
2029
1917
1824
1803
1861
1968
2070
2114
2077
1975
1886
1854
1904
2004
2111
2150
2111
2007
1898
1820
1821
1891
1978
2037
2026
1939
1821
1727
1682
1739
1841
1941
1972
1920
1809
1707
1651
1683
1782
1895
1968
1952
1870
1751
1699
1713
1803
1911
1995
1999
1933
1822
1730
1713
1775
1872
1959
1974
1919
1808
1699
1627
1647
1727
1837
1921
1951
1923
1904
1927
2015
2137
2227
2255
2177
2001
1787
1583
1446
1417
1459
1523
1569
1559
1514
1478
1493
1595
1743
1893
1986
2000
1931
1834
1763
1767
1843
1955
2047
2066
2005
1907
1832
1817
1891
2004
2115
2162
2127
2023
1921
1875
1907
2006
2129
2202
2198
2128
2026
1958
1968
2061
2178
2274
2304
2256
2168
2094
2093
2167
2294
2420
2480
2469
2391
2304
2265
2307
2422
2544
2624
2614
2527
2417
2339
2341
2414
2517
2607
2621
2542
2416
2309
2256
2284
2355
2432
2448
2393
2277
2146
2066
2066
2131
2217
2263
2240
2140
2015
1924
1916
1979
2070
2147
2161
2089
1979
1875
1840
1877
1978
2086
2128
2094
1990
1883
1829
1857
1945
2053
2128
2118
2027
1904
1815
1803
1871
1977
2069
2094
2045
1948
1874
1856
1904
2000
2096
2133
2109
1999
1888
1819
1823
1904
2000
2066
2043
1942
1813
1715
1689
1749
1854
1943
1965
1904
1797
1703
1670
1717
1807
1904
1954
1921
1829
1723
1661
1680
1774
1890
1973
1971
1897
1776
1683
1661
1728
1855
1965
2000
1943
1833
1714
1654
1670
1736
1808
1847
1827
1766
1708
1711
1811
2013
2261
2437
2480
2372
2177
1964
1807
1726
1696
1673
1597
1472
1335
1235
1225
1327
1507
1712
1851
1894
1855
1777
1732
1762
1857
1976
2065
2069
2001
1904
1825
1820
1887
1997
2098
2132
2093
1984
1885
1850
1897
2000
2117
2176
2159
2070
1965
1904
1930
2030
2158
2255
2272
2215
2115
2031
2031
2115
2243
2369
2433
2417
2343
2263
2234
2288
2416
2539
2624
2624
2547
2448
2384
2387
