1983
2012
2147
2391
2721
3067
3371
3583
3692
3744
3883
4095
4095
4095
4095
4095
4095
4095
4095
4095
4095
4095
4095
4095
4095
4095
4095
4095
4095
4095
4095
4095
4095
4095
4095
4095
4095
4095
4095
4095
4095
4095
4095
4095
4095
4095
4095
4095
4095
4095
4095
4095
4095
4095
4095
4095
4095
4095
4095
4095
4095
4095
4095
4095
4095
4095
4095
4095
4095
4095
4095
4095
4095
4095
4095
4095
4095
4095
4095
4095
4095
4095
4095
4095
4095
4095
4095
4095
4095
4095
4095
4095
4095
4095
4095
4095
4095
4095
4095
4095
4095
4095
4095
4095
4095
4095
4095
4095
4095
4095
4095
4095
4095
4095
4095
4095
4095
4095
4095
4095
4095
4095
4095
4095
4095
4095
4095
4095
4095
4095
4095
4095
4095
4095
4095
4095
4095
4095
4095
4095
4095
4095
4095
4095
4095
4095
4095
4095
4095
4095
4095
4095
4095
4095
4095
4095
4095
4095
4095
4095
4095
4095
4095
4095
4095
4095
4095
4095
4095
4095
4095
4095
4095
4095
4095
4095
4095
4095
4095
4095
4095
4095
4095
4095
4095
4095
4095
4095
4095
4095
4095
4095
4095
4095
4095
4095
4095
4095
4095
4095
4095
4095
4048
3975
3984
4033
4053
3983
3824
3655
3527
3493
3537
3637
3712
3711
3613
3472
3351
3312
3395
3565
3792
4000
4091
4021
3850
3679
3539
3445
3362
3254
3095
2897
2724
2608
2582
2630
2741
2859
2925
2908
2837
2770
2751
2800
2889
2973
3009
2976
2879
2775
2716
2723
2784
2879
2938
2921
2845
2747
2662
2624
2652
2707
2769
2803
2772
2695
2621
2587
2608
2664
2727
2766
2735
2640
2530
2467
2482
2559
2663
2725
2732
2669
2581
2512
2515
2585
2679
2754
2768
2714
2635
2545
2512
2544
2624
2701
2727
2687
2591
2469
2384
2359
2396
2449
2480
2448
2357
2244
2145
2100
2114
2165
2213
2215
2160
2059
1949
1893
1917
1984
2064
2099
2074
1991
1887
1815
1805
1854
1933
1991
1984
1923
1838
1762
1742
1778
1855
1917
1935
1886
1806
1708
1650
1662
1712
1776
1803
1766
1679
1575
1489
1485
1533
1607
1661
1659
1599
1499
1409
1369
1399
1486
1559
1593
1555
1476
1394
1362
1379
1450
1527
1578
1554
1474
1375
1309
1301
1344
1419
1470
1472
1413
1334
1271
1268
1349
1477
1633
1750
1783
1749
1667
1583
1501
1450
1399
1323
1200
1039
885
784
794
892
1019
1149
1228
1226
1179
1136
1136
1195
1290
1373
1408
1373
1295
1217
1178
1206
1280
1376
1441
1442
1385
1301
1247
1241
1281
1360
1437
1466
1429
1358
1282
1256
1292
1373
1465
1513
1501
1443
1376
1331
1355
1424
1513
1583
1591
1535
1479
1433
1446
1514
1616
1707
1741
1711
1635
1570
1535
1573
1642
1712
1746
1723
1644
1535
1481
1479
1525
1591
1626
1599
1506
1394
1307
1265
1287
1345
1397
1402
1344
1259
1178
1137
1167
1247
1328
1370
1347
1277
1191
1131
1142
1210
1291
1351
1360
1321
1237
1174
1168
1231
1317
1386
1398
1351
1262
1170
1136
1166
1237
1314
1335
1300
1214
1108
1032
1021
1077
1163
1228
1233
1183
1095
1013
1005
1058
1135
1207
1222
1184
1106
1015
988
1014
1099
1184
1243
1241
1184
1104
1055
1053
1111
1199
1247
1238
1169
1077
997
1010
1110
1269
1438
1561
1584
1517
1407
1279
1191
1139
1095
1022
910
784
682
644
691
817
967
1109
1181
1185
1139
1097
1105
1161
1250
1331
1373
1355
1281
1202
1169
1200
1279
1375
1438
1442
1391
1312
1263
1275
1342
1433
1503
1515
1477
1405
1346
1335
1388
1469
1563
1611
1587
1520
1452
1424
1461
1558
1659
1728
1744
1712
1663
1633
1663
1739
1831
1904
1935
1899
1829
1761
1744
1790
1868
1945
1973
1949
1869
1777
1723
1727
1769
1824
1848
1811
1723
1610
1520
1490
1518
1584
1638
1634
1584
1489
1409
1378
1411
1488
1571
1600
1569
1487
1405
1360
1389
1461
1535
1600
1596
1535
1471
1412
1407
1458
1535
1615
1616
1557
1458
1367
1335
1366
1431
1495
1520
1481
1389
1283
1211
1213
1267
1347
1393
1377
1307
1219
1150
1137
1190
1275
1361
1389
1344
1264
1186
1152
1182
1260
1334
1378
1370
1311
1238
1186
1195
1241
1306
1342
1305
1228
1136
1061
1082
1186
1347
1522
1657
1680
1613
1485
1359
1266
1200
1136
1040
915
787
693
665
719
848
1011
1157
1241
1242
1210
1185
1202
1275
1362
1453
1487
1456
1387
1321
1299
1345
1439
1534
1598
1591
1521
1439
1392
1408
1479
1582
1648
1670
1628
1567
1501
1493
1553
1646
1741
1783
1776
1722
1666
1648
1702
1797
1904
1975
1991
1951
1894
1867
1903
1987
2095
2170
2196
2160
2091
2038
2035
2094
2175
2247
2273
2237
2151
2046
1975
1973
2027
2093
2107
2064
1968
1870
1782
1763
1796
1861
1909
1914
1856
1771
1694
1666
1707
1775
1843
1872
1845
1767
1692
1664
1683
1757
1827
1872
1869
1818
1746
1713
1731
1799
1881
1938
1952
1904
1823
1747
1713
1733
1792
1850
1859
1825
1753
1671
1614
1611
1655
1728
1781
1775
1716
1638
1581
1584
1643
1726
1792
1808
1765
1687
1619
1598
1634
1709
1779
1811
1791
1729
1661
1623
1645
1699
1761
1807
1794
1723
1630
1575
1585
1691
1847
2007
2145
2208
2199
2145
2069
2000
1936
1856
1735
1570
1389
1247
1184
1211
1306
1447
1573
1642
1648
1630
1625
1666
1749
1856
1937
1968
1931
1853
1778
1760
1792
1863
1937
1982
1968
1913
1850
1815
1839
1905
1991
2047
2047
1983
1897
1825
1786
1795
1839
1877
1883
1840
1776
1710
1689
1735
1826
1910
1968
1967
1934
1889
1883
1923
2003
2111
2176
2191
2153
2093
2038
2041
2095
2171
2239
2265
2240
2165
2096
2047
2067
2118
2159
2177
2126
2032
1929
1851
1839
1882
1941
1981
1969
1909
1826
1758
1742
1791
1867
1937
1962
1925
1851
1773
1743
1772
1841
1918
1969
1963
1899
1820
1771
1778
1838
1914
1975
1990
1953
1878
1813
1792
1831
1895
1954
1973
1925
1836
1751
1712
1723
1781
1840
1869
1843
1776
1698
1637
1634
1693
1776
1838
1840
1794
1731
1676
1658
1698
1774
1851
1880
1845
1776
1696
1661
1680
1747
1834
1879
1867
1811
1738
1678
1664
1696
1774
1849
1895
1906
1922
1967
2047
2144
2223
2255
2203
2066
1869
1662
1495
1410
1399
1435
1474
1488
1488
1488
1511
1585
1681
1805
1903
1933
1904
1841
1789
1775
1815
1889
1959
1985
1974
1921
1863
1840
1858
1925
2003
2073
2075
2015
1939
1887
1886
1933
2001
2071
2093
2076
2022
1973
1963
2000
2089
2176
2226
2219
2153
2097
2079
2118
2202
2304
2368
2383
2352
2293
2249
2241
2291
2373
2443
2480
2452
2384
2317
2287
2308
2367
2419
2446
2403
2318
2225
2158
2139
2161
2207
2234
2216
2145
2038
1954
1926
1951
2022
2091
2119
2097
2022
1945
1925
1954
2018
2095
2121
2103
2054
1973
1923
1921
1973
2033
2089
2093
2043
1982
1934
1936
1982
2047
2110
2122
2090
2010
1934
1897
1909
1962
2009
2033
1997
1917
1823
1757
1759
1821
1899
1951
1958
1902
1827
1773
1758
1794
1869
1935
1967
1941
1885
1821
1792
1808
1869
1937
1984
1971
1919
1855
1804
1806
1840
1907
1945
1940
1891
1830
1799
1854
1982
2163
2333
2431
2421
2337
2213
2063
1955
1894
1840
1775
1675
1569
1472
1443
1485
1588
1727
1840
1888
1872
1822
1783
1776
1837
1905
1981
2019
2005
1946
1891
1872
1905
1982
2059
2098
2090
2030
1968
1925
1936
1991
2081
2132
2138
2102
2032
1971
1957
1997
2092
2175
2215
2193
2129
2064
2032
2070
2145
2237
2304
2311
2285
2235
2192
2194
2262
2352
2431
2460
2429
2362
2294
2270
2299
2366
2434
2462
2427
2354
2274
2221
2212
2255
2305
2330
2308
2235
2138
2046
2019
2054
2107
2147
2139
2087
2010
1942
1917
1940
2013
2094
2133
2124
2067
1985
1938
1953
2005
2096
2138
2117
2044
1954
1899
1903
1969
2067
2143
2167
2128
2053
1975
1937
1951
2001
2070
2096
2057
1973
1891
1839
1843
1901
1968
2010
1996
1927
1842
1784
1777
1822
1901
1966
1985
1956
1893
1821
1793
1826
1901
1969
2003
1983
1918
1846
1818
1840
1901
1962
1997
1985
1923
1841
1766
1753
1808
1917
2037
2134
2181
2194
2183
2176
2189
2197
2182
2105
1961
1778
1601
1472
1430
1472
1575
1667
1726
1741
1724
1714
1744
1821
1929
2016
2046
2027
1961
1901
1872
1902
1968
2039
2094
2081
2021
1958
1918
1933
2000
2086
2150
2155
2101
2019
1966
1957
2003
2091
2164
2189
2163
2111
2047
2029
2075
2151
2229
2286
2289
2245
2192
2171
2194
2267
2357
2431
2452
2423
2367
2319
2319
2370
2448
2509
2526
2485
2417
2349
2309
2327
2388
2453
2479
2443
2359
2243
2145
2113
2145
2196
2230
2214
2145
2059
1978
1943
1968
2033
2110
2139
2123
2071
2007
1971
1981
2031
2098
2137
2127
2077
2000
1947
1939
1993
2071
2142
2170
2134
2064
2011
1990
2025
2102
2137
2160
2127
2045
1958
1910
1917
1959
2027
2062
2030
1952
1857
1790
1791
1855
1927
1987
1994
1952
1872
1806
1776
1806
1877
1965
2007
1994
1935
1857
1818
1835
1902
1981
2018
2007
1941
1863
1803
1802
1843
1902
1947
1953
1914
1869
1859
1918
2043
2199
2326
2369
2307
2165
1984
1818
1709
1649
1627
1615
1586
1528
1488
1491
1564
1681
1806
1920
1984
1982
1939
1897
1878
1920
1995
2069
2096
2065
2009
1940
1911
1935
2001
2091
2133
2119
2071
2007
1969
1971
2032
2121
2192
2207
2174
2109
2035
2023
2070
2149
2230
2272
2269
2219
2164
2143
2175
2256
2356
2423
2432
2401
2350
2311
2320
2384
2469
2547
2585
2545
2486
2423
2403
2425
2480
2542
2559
2533
2459
2369
2304
2290
2313
2351
2373
2349
2271
2173
2092
2061
2085
2133
2178
2183
2134
2059
1986
1957
1978
2035
2114
2160
2142
2083
2000
1954
1955
2007
2085
2133
2137
2091
2014
1957
1950
2005
2096
2170
2192
2154
2083
2011
1984
1994
2057
2126
2159
2131
2047
1950
1879
1872
1907
1967
2006
2000
1952
1872
1808
1794
1828
1901
1968
2000
1982
1920
1859
1829
1846
1904
1967
2000
1984
1920
1856
1817
1833
1897
1971
2023
2010
1959
1875
1803
1771
1795
1863
1950
2021
2069
2111
2149
2202
2263
2315
2315
2241
2106
1915
1706
1529
1441
1435
1488
1575
1625
1647
1653
1659
1710
1796
1904
1994
2033
2018
1961
1898
1866
1879
1942
2022
2071
2071
2033
1974
1924
1925
1968
2042
2109
2128
2103
2039
1989
1984
2029
2111
2181
2222
2187
2143
2085
2058
2077
2154
2247
2307
2320
2288
2240
2210
2229
2298
2389
2471
2505
2480
2422
2370
2374
2417
2496
2559
2608
2559
2512
2439
2403
2416
2458
2512
2539
2512
2443
2331
2247
2210
2220
2261
2293
2286
2220
2122
2032
1985
2000
2063
2125
2145
2119
2047
1974
1936
1954
2011
2078
2119
2109
2043
1970
1919
1924
1965
2031
2087
2094
2047
1984
1924
1903
1934
2000
2082
2135
2126
2062
1983
1943
1936
1984
2047
2096
2087
2015
1920
1851
1833
1856
1915
1961
1967
1921
1853
1779
1748
1780
1840
1904
1936
1919
1855
1787
1745
1763
1822
1894
1942
1945
1894
1823
1776
1774
1825
1899
1963
1970
1920
1835
1746
1708
1716
1770
1838
1891
1923
1937
1967
2017
2122
2225
2310
2320
2229
2061
1840
1627
1481
1424
1442
1483
1503
1507
1503
1510
1535
1631
1743
1856
1935
1941
1898
1842
1803
1809
1865
1939
2002
2019
1981
1914
1854
1845
1891
1982
2063
2081
2035
1963
1903
1875
1915
1995
2080
2128
2126
2070
1998
1961
1974
2039
2131
2195
2207
2173
2118
2087
2100
2155
2235
2320
2365
2354
2308
2260
2250
2293
2368
2448
2498
2493
2438
2361
2303
2294
2329
2388
2427
2419
2367
2279
2203
2167
2175
2207
2235
2223
2170
2081
1983
1921
1918
1968
2037
2081
2059
1987
1917
1865
1865
1908
1979
2034
2041
1990
1919
1863
1850
1887
1965
2037
2064
2031
1955
1875
1839
1856
1915
1985
2029
2018
1975
1920
1891
1901
1953
2026
2084
2078
2017
1931
1856
1826
1855
1915
1963
1979
1936
1855
1773
1727
1741
1799
1861
1899
1891
1839
1775
1727
1723
1783
1869
1931
1937
1875
1803
1733
1719
1762
1840
1905
1936
1918
1856
1785
1743
1754
1808
1869
1907
1881
1810
1742
1718
1776
1901
2056
2205
2301
2314
2256
2175
2085
2011
1964
1890
1792
1663
1519
1408
1361
1393
1493
1633
1742
1795
1791
1751
1725
1740
1806
1893
1969
1991
1953
1881
1828
1811
1857
1935
1994
2030
2021
1963
1897
1852
1872
1936
2019
2073
2083
2040
1985
1938
1941
1988
2068
2130
2143
2114
2059
2005
2001
2047
2131
2212
2259
2239
2189
2140
2135
2178
2257
2352
2410
2409
2362
2293
2250
2253
2305
2384
2439
2446
2394
2319
2247
2217
2237
2288
2334
2345
2297
2222
2127
2062
2032
2064
2110
2138
2123
2059
1968
1904
1894
1933
2006
2064
2087
2057
1977
1911
1892
1919
1984
2056
2090
2064
2001
1936
1902
1913
1957
2027
2073
2067
2001
1933
1882
1885
1935
2017
2098
2125
2096
2029
1949
1907
1920
1971
2032
2059
2023
1956
1887
1849
1857
1902
1963
2004
1994
1937
1855
1788
1769
1795
1861
1922
1955
1933
1872
1799
1771
1802
1865
1937
1987
1985
1931
1858
1807
1808
1861
1936
1979
1962
1904
1818
1754
1743
1781
1862
1951
2023
2063
2070
2099
2159
2231
2305
2352
2323
2215
2037
1839
1664
1554
1525
1567
1621
1657
1651
1631
1621
1648
1729
1836
1922
1970
1956
1898
1836
1808
1827
1887
1972
2031
2030
1983
1909
1872
1878
1936
2017
2085
2096
2054
1984
1930
1918
1954
2033
2112
2144
2122
2063
1989
1969
2006
2094
2165
2224
2227
2183
2114
2083
2105
2175
2275
2352
2382
2351
2289
2230
2230
2271
2351
2425
2458
2429
2368
2301
2256
2256
2306
2368
2403
2384
2315
2224
2160
2143
2183
2229
2257
2230
2156
2059
1973
1941
1968
2030
2095
2115
2083
2002
1924
1889
1911
1983
2064
2107
2086
2014
1936
1894
1906
1964
2035
2096
2101
2054
1970
1904
1887
1930
2011
2096
2124
2101
2032
1967
1926
1943
2000
2077
2127
2114
2057
1968
1909
1898
1936
2005
2061
2055
1984
1898
1813
1782
1802
1858
1923
1964
1948
1886
1819
1778
1789
1840
1906
1949
1947
1895
1831
1780
1777
1822
1891
1955
1974
1937
1870
1803
1776
1790
1850
1911
1934
1916
1858
1815
1834
1922
2082
2257
2362
2370
2283
2129
1952
1818
1744
1711
1681
1631
1535
1473
1435
1463
1555
1682
1808
1883
1906
1877
1830
1807
1830
1890
1968
2027
2034
1999
1942
1895
1904
1947
2031
2103
2123
2089
2007
1947
1929
1965
2035
2112
2148
2134
2080
2015
1982
2007
2087
2168
2238
2248
2213
2149
2098
2096
2155
2250
2330
2367
2347
2295
2256
2262
2310
2385
2469
2523
2516
2461
2385
2344
2346
2390
2454
2509
2499
2438
2352
2285
2253
2271
2317
2358
2355
2302
2207
2103
2045
2047
2101
2160
2185
2154
2095
2001
1943
1943
1987
2054
2112
2115
2064
1981
1921
1919
1968
2043
2117
2142
2112
2036
1968
1927
1945
2001
2077
2112
2096
2032
1968
1934
1953
2029
2113
2175
2192
2144
2066
1999
1975
2007
2062
2098
2099
2061
1971
1883
1831
1842
1901
1968
1999
1984
1920
1842
1794
1791
1835
1905
1968
1974
1931
1867
1814
1795
1837
1904
1968
2000
1979
1918
1845
1808
1826
1888
1946
1984
1980
1887
1814
1751
1762
1839
1962
2093
2189
2254
2261
2239
2208
2178
2133
2071
1965
1810
1638
1472
1386
1392
1471
1602
1723
1795
1808
1795
1782
1809
1872
1953
2014
2039
2009
1955
1910
1901
1936
2017
2107
2144
2127
2072
2002
1968
1975
2026
2103
2150
2157
2112
2045
2001
2006
2068
2155
2218
2240
2217
2158
2108
2096
2142
2222
2314
2366
2364
2324
2275
2253
2283
2355
2448
2518
2542
2507
2444
2395
2400
2449
2535
2607
2611
2559
2480
2411
2379
2397
2448
2496
2495
2435
2344
2245
2180
2174
2209
2257
2275
2240
2165
2085
2004
1994
2032
2096
2151
2157
2106
2015
1939
1911
1939
2013
2087
2118
2094
2026
1949
1904
1915
1965
2033
2087
2087
2032
1950
1899
1884
1924
2000
2070
2094
2062
2000
1943
1931
1971
2047
2118
2147
2112
2032
1963
1920
1917
1957
2007
2039
2021
1951
1865
1794
1779
1819
1890
1953
1969
1926
1861
1792
1767
1799
1862
1933
1971
1957
1901
1837
1795
1798
1850
1915
1973
1985
1938
1863
1802
1783
1817
1872
1911
1911
1863
1802
1767
1798
1917
2091
2279
2405
2427
2352
2204
2041
1916
1823
1767
1703
1618
1520
1436
1392
1423
1535
1680
1808
1883
1899
1867
1834
1822
1861
1936
2006
2054
2032
1968
1891
1850
1859
1923
2007
2077
2095
2047
1994
1936
1933
1969
2037
2111
2134
2112
2047
2000
1987
2026
2109
2176
2225
2229
2187
2128
2106
2128
2198
2283
2352
2371
2348
2291
2247
2256
2319
2415
2500
2544
2521
2474
2407
2379
2409
2475
2535
2581
2555
2483
2390
2319
2320
2350
2393
2417
2394
2315
2215
2121
2075
2091
2133
2180
2189
2137
2058
1973
1925
1936
1991
2064
2098
2080
2015
1936
1877
1871
1920
1988
2059
2069
2029
1936
1856
1827
1859
1936
2007
2032
2005
1941
1872
1839
1856
1913
1977
2021
2011
1966
1914
1883
1895
1946
2017
2077
2078
2019
1941
1871
1843
1871
1923
1977
1990
1945
1869
1778
1732
1742
1800
1872
1908
1899
1836
1763
1709
1710
1758
1837
1908
1931
1893
1822
1750
1723
1758
1831
1904
1947
1936
1871
1799
1744
1745
1791
1845
1874
1863
1824
1792
1795
1871
2017
2207
2363
2418
2366
2245
2092
1934
1813
1723
1667
1599
1518
1429
1360
1350
1424
1557
1691
1796
1841
1825
1787
1757
1770
1838
1922
1990
2009
1973
1905
1843
1823
1858
1936
2021
2071
2055
2000
1927
1893
1902
1957
2033
2100
2099
2064
1989
1953
1961
2009
2080
2150
2175
2161
2107
2055
2041
2094
2172
2253
2309
2315
2285
2240
2221
2251
2322
2431
2510
2527
2487
2417
2366
2354
2392
2459
2522
2535
2496
2422
2352
2311
2319
2361
2410
2399
2352
2259
2171
2112
2096
2128
2176
2210
2192
2129
2039
1975
1958
1991
2046
2106
2135
2103
2020
1936
1899
1920
1984
2055
2096
2073
2018
1950
1918
1933
1984
2063
2112
2117
2064
1978
1910
1884
1917
1993
2080
2121
2114
2059
1989
1957
1982
2032
2108
2139
2121
2042
1947
1884
1871
1914
1974
2013
2001
1936
1857
1803
1792
1822
1877
1936
1968
1947
1886
1814
1789
1807
1867
1939
1993
1989
1938
1868
1826
1831
1887
1965
2025
2026
1977
1891
1813
1787
1808
1871
1923
1939
1936
1921
1933
1987
2112
2276
2414
2460
2417
2293
2118
1941
1813
1744
1714
1695
1658
1600
1520
1487
1516
1616
1749
1879
1954
1959
1906
1853
1834
1851
1922
1999
2043
2047
2002
1946
1904
1912
1969
2038
2099
2101
2059
1994
1943
1946
1990
2065
2141
2174
2159
2103
2031
1999
2023
2096
2173
2219
2213
2162
2112
2079
2093
2155
2245
2330
2364
2343
2282
2234
2219
2262
2347
2416
2449
2447
2391
2322
2288
2304
2363
2432
2466
2447
2375
2293
2229
2205
2231
2283
2319
2303
2238
2139
2042
1999
2020
2082
2131
2146
2112
2029
1938
1894
1893
1941
2006
2045
2041
1994
1921
1882
1887
1942
2025
2090
2100
2063
1985
1921
1893
1920
1990
2069
2109
2095
2033
1968
1925
1935
1985
2064
2114
2107
2059
1977
1920
1911
1954
2026
2090
2098
2058
1968
1883
1842
1856
1904
1954
1983
1961
1895
1811
1774
1776
1827
1891
1938
1938
1888
1838
1787
1781
1821
1889
1951
1973
1943
1878
1823
1808
1847
1907
1966
1989
1963
1892
1805
1750
1754
1815
1915
2015
2093
2122
2139
2170
2198
2239
2267
2256
2166
2012
1825
1645
1509
1461
1488
1567
1627
1659
1659
1648
1645
1687
1775
1871
1943
1962
1930
1877
1839
1835
1877
1947
2011
2037
2007
1945
1883
1859
1891
1968
2047
2099
2083
2023
1955
1919
1936
2000
2081
2128
2128
2081
2005
1958
1954
2000
2099
2175
2214
2194
2139
2089
2075
2123
2215
2306
2368
2368
2327
2258
2221
2235
2299
2383
2449
2469
2425
2351
2289
2271
2301
2353
2403
2410
2368
2279
2179
2115
2110
2151
2207
2219
2178
2090
1985
1923
1917
1953
2010
2061
2064
2013
1935
1866
1840
1869
1931
1999
2032
2003
1949
1878
1849
1863
1931
2007
2057
2031
1968
1883
1834
1833
1886
1955
2019
2031
1999
1936
1876
1865
1909
1979
2038
2063
2017
1946
1876
1841
1853
1897
1946
1980
1955
1881
1786
1713
1696
1742
1818
1870
1869
1813
1742
1690
1675
1713
1782
1856
1888
1867
1795
1715
1658
1661
1723
1795
1840
1826
1774
1694
1635
1630
1669
1729
1776
1771
1725
1664
1621
1652
1767
1931
2100
2193
2186
2095
1944
1808
1712
1651
1613
1553
1462
1360
1267
1232
1290
1424
1588
1720
1782
1786
1745
1710
1712
1759
1836
1907
1946
1922
1861
1793
1757
1776
1840
1923
1987
2003
1954
1882
1828
1821
1866
1939
2006
2032
2001
1942
1883
1859
1904
1984
2069
2112
2103
2059
1998
1974
2007
2090
2187
2254
2271
2240
2191
2162
2176
2234
2321
2403
2433
2412
2353
2295
2272
2303
2377
2448
2475
2448
2384
2295
2240
2234
2261
2311
2347
2321
2240
2130
2046
2017
2043
2095
2135
2133
2077
1997
1920
1891
1913
1969
2029
2062
2034
1971
1903
1855
1867
1925
2003
2069
2070
2007
1935
1863
1856
1904
1984
2054
2064
2014
1940
1873
1853
1895
1975
2062
2103
2096
2032
1958
1906
1904
1953
2018
2071
2063
1997
1914
1839
1807
1813
1867
1924
1936
1904
1834
1767
1728
1754
1823
1893
1936
1920
1875
1796
1759
1770
1825
1902
1954
1949
1901
1824
1776
1775
1827
1907
1973
1980
1930
1838
1754
1707
1721
1776
1869
1964
2032
2077
2116
2176
2242
2293
2304
2253
2127
1938
1730
1531
1413
1390
1437
1522
1600
1626
1623
1625
1656
1735
1845
1957
2031
2035
1982
1907
1854
1859
1917
2000
2061
2067
2032
1957
1891
1882
1935
2025
2106
2141
2112
2061
1989
1958
1986
2064
2155
2211
2207
2148
2073
2032
2054
2117
2205
2281
2304
2284
2235
2194
2206
2263
2354
2445
2485
2477
2432
2375
2363
2405
2479
2554
2607
2603
2542
2478
2430
2426
2464
2518
2559
2547
2482
2384
2292
2240
2244
2284
2320
2320
2261
2174
2074
2013
2010
2064
2130
2175
2159
2095
2007
1957
1943
1984
2046
2099
2108
2064
1991
1923
1902
1930
1990
2063
2090
2057
1984
1909
1875
1891
1946
2021
2064
2058
2013
1957
1906
1914
1967
2044
2102
2109
2059
1968
1889
1857
1886
1942
2000
2011
1975
1902
1824
1775
1776
1819
1892
1936
1936
1883
1813
1759
1757
1802
1872
1936
1952
1917
1851
1782
1763
1785
1865
1941
1983
1959
1895
1813
1759
1770
1820
1873
1906
1891
1844
1791
1773
1839
1983
2165
2333
2421
2402
2303
2156
2003
1886
1805
1723
1630
1515
1408
1328
1310
1374
1503
1664
1776
1836
1838
1805
1773
1776
1833
1907
1971
1987
1957
1892
1843
1829
1859
1936
2015
2073
2065
2005
1939
1905
1927
2000
2082
2130
2128
2082
2016
1959
1965
2023
2115
2192
2219
2192
2125
2069
2064
2115
2198
2294
2345
2345
2294
2241
2218
2250
2339
2439
2511
2519
2480
2411
2366
2353
2397
2466
2525
2535
2485
2417
2350
2316
2315
2363
2405
2403
2361
2261
2150
2074
2065
2095
2133
2173
2151
2082
1991
1918
1894
1925
2001
2070
2080
2032
1957
1887
1859
1883
1953
2023
2063
2039
1982
1904
1855
1869
1922
1996
2042
2040
1983
1890
1822
1808
1861
1957
2045
2095
2075
2011
1933
1901
1920
1984
2034
2063
2021
1942
1865
1808
1794
1839
1903
1942
1936
1872
1783
1725
1712
1751
1826
1891
1915
1878
1813
1745
1727
1759
1824
1895
1931
1910
1852
1771
1728
1747
1817
1901
1958
1949
1893
1805
1728
1693
1720
1801
1902
1984
2032
2059
2096
2161
2237
2303
2337
2299
2160
1950
1722
1527
1419
1404
1456
1522
1564
1568
1535
1526
1560
1648
1764
1863
1923
1920
1873
1819
1791
1817
1878
1956
1995
1983
1929
1870
1830
1855
1919
2002
2074
2085
2041
1974
1915
1901
1947
2023
2102
2130
2105
2032
1953
1917
1949
2032
2138
2206
2219
2174
2101
2054
2079
2157
2255
2347
2387
2365
2311
2259
2252
2294
2377
2455
2496
2467
2399
2327
2287
2301
2365
2442
2480
2461
2403
2299
2199
2159
2178
2224
2250
2242
2181
2096
1998
1966
1983
2032
2096
2110
2069
1991
1919
1872
1887
1961
2059
2115
2110
2039
1949
1885
1880
1931
2007
2089
2099
2062
1982
1904
1871
1887
1965
2047
2098
2090
2027
1951
1915
1931
1986
2063
2101
2079
2019
1947
1886
1872
1904
1951
2000
2000
1947
1859
1774
1743
1779
1859
1936
1974
1949
1873
1793
1743
1747
1812
1896
1951
1964
1915
1845
1787
1776
1831
1921
1999
2013
1973
1885
1808
1776
1808
1869
1929
1955
1936
1901
1877
1902
2003
2175
2343
2437
2441
2339
2179
2003
1886
1818
1781
1737
1673
1592
1506
1452
1471
1569
1712
1841
1917
1909
1858
1792
1770
1803
1872
1959
2018
2031
1983
1919
1874
1882
1939
2029
2110
2127
2086
2005
1943
1924
1959
2027
2108
2160
2135
2066
1982
1937
1965
2045
2141
2210
2222
2191
2118
2069
2069
2128
2213
2301
2346
2327
2274
2221
2210
2260
2338
2426
2471
2457
2405
2337
2293
2307
2364
2435
2480
2476
2413
2315
2224
2183
2219
2288
2335
2337
2274
2174
2081
2027
2037
2102
2166
2198
2171
2094
1999
1936
1939
2000
2096
2155
2158
2099
2009
1937
1922
1984
2079
2160
2189
2145
2059
1965
1920
1947
2029
2121
2181
2181
2129
2067
2033
2054
2114
2176
2218
2203
2139
2039
1967
1943
1989
2071
2131
2141
2096
2000
1907
1866
1888
1958
2047
2102
2087
2014
1933
1872
1885
1953
2061
2131
2151
2106
2023
1958
1951
1999
2100
2189
2227
2204
2130
2037
1999
2007
2071
2141
2176
2151
2093
2014
1987
2056
2189
2363
2533
2619
2594
2485
2352
2245
2166
2112
2054
1959
1835
1694
1583
1535
1585
1701
1846
1955
1994
1966
1907
1872
1899
1971
2074
2138
2154
2103
2015
1936
1913
1954
2058
2151
2198
2180
2103
2011
1954
1974
2063
2158
2217
2215
2160
2075
2011
2011
2071
2163
2242
2271
2239
2165
2097
2081
2130
2227
2323
2382
2371
2314
2242
2213
2247
2335
2431
2507
2512
2461
2381
2320
2316
2367
2442
2502
2512
2478
2388
2311
2281
2295
2340
2379
2380
2325
2230
2128
2047
2033
2078
2133
2174
2159
2096
1994
1905
1889
1930
1994
2073
2097
2061
1984
1909
1884
1915
1996
2078
2112
2092
2005
1921
1865
1871
1931
2011
2081
2086
2026
1946
1895
1899
1949
2025
2096
2107
2058
1969
1885
1845
1859
1918
1978
2000
1971
1902
1815
1755
1747
1793
1874
1935
1927
1866
1779
1707
1683
1726
1803
1871
1901
1872
1794
1714
1667
1703
1796
1885
1941
1929
1869
1793
1729
1723
1771
1840
1887
1882
1813
1723
1660
1657
1741
1878
2032
2161
2211
2173
2086
1985
1922
1886
1850
1776
1647
1484
1346
1267
1280
1374
1507
1639
1711
1719
1695
1671
1685
1746
1843
1933
1968
1936
1862
1786
1759
1793
1887
1980
2034
2019
1953
1870
1803
1803
1858
1944
2011
2033
2000
1936
1883
1872
1919
2004
2096
2138
2114
2045
1984
1961
1999
2094
2186
2244
2249
2199
2138
2096
2115
2191
2293
2383
2409
2375
2313
2255
2239
2283
2368
2441
2470
2437
2352
2268
2218
2224
2271
2335
2356
2329
2240
2128
2043
2012
2032
2075
2112
2105
2047
1970
1893
1866
1891
1951
2011
2035
2011
1941
1870
1829
1843
1910
1983
2032
2032
1970
1893
1835
1829
1877
1955
2007
2022
1981
1909
1853
1840
1886
1968
2038
2066
2031
1954
1875
1825
1837
1881
1938
1979
1955
1884
1805
1737
1724
1775
1846
1904
1914
1856
1776
1709
1691
1727
1808
1879
1917
1894
1829
1760
1721
1731
1794
1869
1914
1905
1855
1787
1732
1724
1747
1808
1854
1850
1793
1711
1643
1648
1728
1870
2031
2176
2246
2246
2185
2091
2001
1935
1881
1779
1648
1489
1348
1254
1249
1328
1469
1625
1723
1746
1733
1708
1703
1756
1842
1921
1971
1961
1904
1827
1786
1807
1872
1962
2027
2038
1985
1904
1846
1846
1904
1993
2064
2092
2061
1997
1938
1902
1936
2015
2101
2149
2143
2092
2027
1993
2029
2114
2224
2304
2331
2297
2240
2197
2214
2285
2381
2466
2507
2491
2434
2373
2350
2384
2464
2538
2580
2547
2474
2384
2320
2318
2363
2427
2463
2447
2369
2260
2172
2128
2135
2182
2222
2224
2162
2059
1947
1891
1905
1968
2032
2078
2057
1977
1892
1838
1850
1916
2003
2074
2071
2015
1931
1856
1840
1893
1968
2037
2066
2023
1938
1851
1817
1859
1943
2032
2089
2065
1985
1893
1830
1837
1885
1965
2019
2013
1942
1839
1746
1721
1757
1838
1911
1930
1877
1791
1712
1675
1701
1777
1867
1915
1894
1819
1735
1680
1691
1756
1837
1902
1904
1849
1773
1702
1694
1744
1829
1903
1915
1866
1767
1664
1612
1648
1747
1890
2018
2107
2145
2160
2149
2157
2166
2160
2096
1948
1745
1520
1345
1259
1280
1365
1488
1591
1632
1614
1586
1598
1680
1796
1904
1970
1968
1907
1829
1776
1783
1851
1936
2004
2024
1979
1899
1840
1834
1890
1983
2069
2101
2064
1978
1887
1841
1877
1967
2064
2131
2133
2094
2023
1983
1991
2071
2161
2240
2267
2242
2187
2146
2160
2221
2309
2400
2448
2432
2375
2309
2286
2319
2394
2479
2529
2528
2479
2389
2320
2306
2347
2407
2449
2443
2363
2247
2147
2101
2112
2158
2205
2209
2160
2064
1963
1904
1910
1968
2032
2078
2067
2000
1927
1860
1857
1915
2000
2064
2078
2026
1936
1866
1829
1859
1933
2003
2023
2002
1945
1868
1829
1851
1916
1985
2039
2037
1993
1927
1875
1875
1911
1968
2013
2011
1967
1889
1808
1770
1776
1819
1861
1877
1838
1762
1680
1630
1647
1709
1776
1824
1813
1754
1669
1617
1614
1649
1713
1771
1781
1745
1669
1607
1585
1616
1678
1743
1769
1747
1673
1586
1522
1521
1574
1633
1677
1682
1678
1680
1719
1825
1983
2125
2201
2189
2082
1903
1699
1518
1405
1361
1363
1370
1341
1293
1259
1269
1343
1456
1590
1694
1744
1726
1682
1641
1646
1697
1767
1834
1857
1842
1794
1744
1723
1759
1838
1920
1963
1955
1904
1845
1814
1839
1902
1975
2032
2044
2000
1936
1887
1885
1927
2000
2087
2126
2112
2063
2011
2000
2032
2127
2225
2289
2303
2263
2218
2199
2223
2288
2378
2435
2448
2417
2355
2288
2269
2299
2361
2423
2435
2397
2309
2224
2169
2176
2224
2272
2288
2242
2160
2064
1986
1971
2013
2084
2127
2112
2044
1961
1905
1889
1919
1986
2062
2087
2059
1991
1921
1893
1911
1968
2046
2103
2099
2036
1964
1905
1895
1937
2001
2064
2080
2064
2000
1941
1920
1943
2001
2067
2096
2075
2014
1937
1886
1889
1939
2005
2038
2026
1973
1889
1828
1815
1861
1927
1983
1997
1955
1877
1824
1805
1846
1922
2000
2021
1985
1916
1847
1819
1841
1917
2001
2055
2045
1978
1894
1824
1814
1856
1923
1983
1987
1957
1903
1883
1933
2059
2227
2402
2509
2496
2410
2274
2141
2032
1955
1902
1835
1734
1615
1503
1451
1487
1591
1729
1850
1911
1893
1850
1799
1792
1847
1943
2034
2095
2077
1998
1935
1900
1929
2002
2097
2163
2155
2099
2015
1961
1966
2019
2097
2159
2176
2137
2067
2000
1984
2026
2113
2201
2241
2229
2170
2109
2081
2122
2213
2315
2378
2390
2351
2271
2222
2224
2288
2384
2473
2498
2477
2415
2352
2323
2355
2425
2494
2515
2482
2412
2325
2260
2253
2289
2342
2374
2354
2282
2176
2097
2065
2096
2155
2204
2214
2164
2078
2000
1970
1986
2043
2107
2139
2119
2059
1983
1950
1965
2023
2101
2157
2160
2110
2026
1956
1937
1987
2070
2133
2151
2118
2047
1986
1953
1984
2064
2146
2189
2164
2082
1983
1925
1926
1975
2043
2098
2083
2009
1913
1840
1809
1841
1919
1985
2010
1982
1909
1837
1806
1830
1906
1985
2015
1995
1935
1871
1821
1826
1890
1981
2055
2047
1981
1887
1813
1805
1852
1931
1997
2011
1962
1870
1798
1780
1855
1983
2137
2279
2352
2334
2258
2172
2103
2067
2032
1980
1871
1724
1566
1444
1415
1479
1599
1725
1817
1846
1825
1795
1791
1841
1920
2001
2055
2047
1989
1923
1878
1892
1947
2031
2105
2125
2097
2031
1968
1950
1986
2059
2123
2158
2141
2084
2009
1975
2003
2086
2163
2219
2220
2173
2105
2064
2071
2134
2224
2305
2334
2306
2252
2209
2225
2287
2370
2448
2495
2481
2428
2355
2320
2330
2390
2459
2507
2502
2447
2365
2299
2286
2315
2369
2407
2398
2320
2215
2121
2083
2096
2144
2195
2199
2151
2060
1962
1903
1913
1984
2074
2125
2117
2062
1968
1907
1909
1967
2046
2112
2118
2071
1988
1911
1883
1915
1994
2078
2117
2096
2029
1950
1909
1931
2006
2097
2151
2146
2086
1988
1921
1902
1936
2004
2076
2091
2032
1943
1850
1799
1811
1867
1922
1947
1926
1866
1797
1759
1776
1857
1949
2000
1988
1924
1839
1776
1776
1827
1905
1979
2003
1972
1904
1830
1805
1839
1907
1983
2011
1981
1894
1791
1729
1739
1820
1942
2062
2145
2189
2187
2157
2130
2121
2111
2064
1955
1791
1602
1435
1350
1358
1455
1593
1698
1754
1750
1728
1729
1776
1847
1935
2000
2015
1975
1904
1846
1846
1901
1989
2083
2114
2096
2026
1948
1918
1942
2018
2110
2160
2144
2080
1997
1955
1971
2047
2135
2197
2206
2160
2094
2030
2032
2093
2183
2270
2310
2299
2256
2208
2205
2259
2352
2453
2511
2509
2458
2387
2351
2365
2430
2512
2577
2581
2513
2422
2347
2323
2354
2416
2467
2477
2417
2320
2224
2165
2160
2196
2235
2242
2197
2112
2006
1936
1927
1977
2063
2128
2139
2090
2000
1930
1919
1968
2047
2122
2141
2105
2017
1937
1902
1927
1997
2077
2122
2110
2035
1959
1913
1933
2001
2094
2160
2166
2113
2015
1930
1904
1936
2001
2065
2082
2032
1950
1869
1814
1827
1879
1953
1985
1968
1903
1820
1769
1775
1832
1904
1966
1968
1923
1840
1773
1754
1799
1881
1959
1984
1957
1890
1823
1795
1818
1883
1949
1983
1962
1889
1792
1712
1689
1738
1827
1931
2005
2047
2084
2115
2169
2227
2263
2247
2150
1982
1770
1555
1401
1350
1400
1491
1584
1632
1648
1635
1648
1701
1802
1921
2010
2043
2011
1938
1869
1847
1887
1965
2042
2092
2075
2002
1936
1902
1927
2004
2099
2160
2157
2098
2017
1959
1963
2018
2111
2183
2211
2178
2112
2063
2053
2096
2190
2288
2339
2337
2287
2224
2195
2240
2327
2442
2518
2542
2507
2442
2390
2398
2459
2544
2624
2642
2611
2529
2448
2412
2433
2494
2551
2559
2514
2416
2310
2239
2225
2266
2321
2342
2298
2206
2095
2004
1979
2023
2100
2156
2160
2110
2015
1936
1907
1938
2013
2096
2128
2108
2033
1952
1904
1917
1970
2053
2112
2109
2039
1957
1890
1886
1939
2032
2114
2146
2112
2034
1968
1936
1963
2010
2078
2095
2062
1989
1904
1849
1851
1899
1963
1999
1982
1920
1835
1762
1744
1790
1859
1918
1935
1902
1833
1773
1744
1775
1840
1921
1963
1943
1890
1813
1772
1782
1842
1930
1988
1984
1929
1840
1766
1745
1778
1843
1901
1929
1907
1878
1879
1953
2094
2260
2390
2443
2390
2253
2063
1866
1713
1621
1579
1535
1508
1458
1412
1408
1463
1590
1738
1870
1939
1947
1903
1847
1831
1858
1915
1992
2047
2046
2000
1929
1875
1889
1957
2045
2115
2125
2074
1989
1925
1923
1979
2065
2147
2179
2143
2070
1990
1958
1993
2078
2174
2233
2238
2179
2109
2066
2094
2178
2291
2372
2390
2347
2277
2226
2229
2288
2384
2479
2530
2512
2438
2362
2326
2352
2416
2483
2511
2480
2397
2295
2222
2193
2229
2288
2320
2299
2217
2109
2006
1953
1962
2002
2064
2081
2037
1952
1858
1815
1839
1911
1987
2033
2023
1968
1881
1818
1810
1863
1939
2011
2015
1963
1875
1792
1770
1805
1873
1946
1975
1943
1877
1815
1795
1829
1897
1984
2035
2024
1953
1866
1795
1781
1823
1890
1939
1941
1875
1778
1694
1663
1682
1749
1829
1856
1821
1743
1664
1618
1638
1702
1777
1834
1825
1767
1695
1633
1629
1689
1782
1871
1894
1855
1767
1685
1651
1680
1735
1800
1831
1805
1721
1618
1557
1572
1669
1811
1950
2055
2117
2137
2119
2103
2101
2083
2022
1903
1722
1511
1348
1265
1280
1360
1466
1567
1611
1596
1557
1535
1584
1677
1791
1869
1885
1836
1757
1693
1706
1774
1872
1955
1999
1975
1894
1814
1776
1808
1878
1952
1987
1957
1889
1818
1792
1832
1905
1989
2055
2064
2020
1947
1901
1909
1973
2080
2170
2199
2177
2114
2065
2045
2091
2181
2288
2352
2347
2293
2223
2183
2204
2285
2367
2426
2432
2385
2311
2237
2215
2241
2308
2379
2386
2333
2229
2122
2045
2030
2064
2112
2128
2095
1997
1903
1839
1839
1895
1970
2032
2035
1985
1907
1839
1809
1845
1917
1978
2003
1975
1915
1835
1797
1825
1903
1985
2032
2013
1942
1856
1797
1808
1863
1959
2031
2039
2001
1933
1871
1856
1903
1967
2021
2035
1999
1919
1830
1776
1790
1847
1919
1959
1954
1887
1798
1731
1719
1763
1834
1893
1899
1863
1794
1733
1725
1776
1856
1927
1953
1915
1840
1754
1718
1751
1840
1930
1981
1963
1889
1807
1744
1733
1777
1843
1899
1923
1918
1910
1923
2002
2151
2316
2416
2437
2367
2222
2027
1856
1744
1690
1678
1663
1626
1575
1527
1518
1578
1684
1815
1905
1941
1911
1851
1801
1808
1857
1942
2017
2055
2038
1993
1933
1905
1922
1992
2067
2112
2105
2057
1989
1945
1961
2025
2112
2183
2199
2158
2083
2007
1995
2032
2114
2194
2238
2225
2175
2113
2091
2121
2207
2308
2384
2403
2367
2311
2278
2285
2343
2423
2485
2513
2485
2425
2371
2365
2398
2450
2495
2507
2465
2385
2298
2234
2230
2278
2334
2363
2335
2254
2145
2057
2027
2064
2127
2176
2186
2135
2053
1970
1936
1968
2033
2112
2145
2125
2059
1986
1946
1968
2029
2118
2176
2167
2102
2015
1965
1959
2014
2095
2157
2171
2127
2058
1994
1978
2007
2087
2155
2176
2143
2069
1989
1936
1938
1987
2062
2111
2099
2029
1935
1851
1822
1857
1926
1987
2002
1965
1887
1814
1787
1809
1874
1949
1986
1968
1902
1823
1777
1797
1867
1951
2002
2002
1961
1878
1812
1790
1830
1898
1959
1973
1923
1847
1777
1763
1825
1939
2094
2217
2283
2255
2176
2094
2016
1979
1948
1879
1776
1636
1488
1392
1380
1456
1586
1712
1790
1815
1798
1775
1775
1823
1909
1998
2047
2047
1983
1917
1861
1871
1933
2017
2083
2093
2042
1968
1915
1906
1955
2033
2114
2148
2117
2047
1981
1950
1969
2044
2128
2183
2191
2138
2071
2032
2053
2129
2217
2275
2303
2274
2212
2175
2182
2251
2352
2434
2475
2470
2415
2343
2299
2320
2372
2443
2485
2481
2427
2352
2289
2272
2306
2359
2399
2381
2307
2207
2114
2067
2082
2128
2177
2187
2133
2037
1941
1890
1894
1952
2018
2066
2055
1991
1918
1867
1877
1935
2013
2079
2087
2034
1951
1882
1869
1911
1992
2068
2087
2064
1994
1919
1885
1915
1988
2080
2137
2138
2082
1997
1931
1911
1955
2023
2080
2077
2006
1926
1842
1808
1829
1885
1941
1966
1932
1855
1776
1731
1752
1814
1894
1947
1942
1878
1802
1749
1755
1808
1891
1955
1970
1930
1850
1787
1774
1813
1889
1959
1977
1933
1845
1751
1683
1691
1756
1855
1939
1998
2017
2031
2060
2110
2150
2170
2137
2029
1871
1680
1495
1390
1366
1430
1523
1613
1651
1663
1659
1677
1735
1835
1940
2011
2015
1973
1899
1840
1834
1895
1982
2064
2086
2054
1981
1914
1891
1930
2000
2087
2128
2119
2061
1984
1939
1956
2030
2125
2192
2192
2141
2076
2020
2023
2090
2175
2257
2300
2277
2213
2151
2142
2193
2295
2398
2460
2455
2416
2352
2323
2351
2430
2511
2559
2559
2501
2416
2358
2352
2394
2474
2515
2513
2447
2343
2240
2181
2190
2238
2288
2291
2240
2138
2015
1937
1935
1990
2073
2125
2113
2043
1955
1883
1875
1929
2007
2083
2103
2066
1978
1901
1874
1909
1984
2065
2100
2064
1984
1892
1847
1860
1927
2007
2083
2098
2047
1972
1910
1906
1959
2032
2097
2117
2062
1965
1875
1840
1857
1930
1998
2029
1995
1910
1808
1748
1758
1836
1919
1969
1953
1886
1799
1723
1709
1753
1838
1910
1936
1903
1831
1763
1732
1761
1837
1920
1967
1950
1879
1791
1745
1743
1797
1867
1905
1882
1804
1719
1671
1710
1824
1999
2177
2313
2354
2294
2174
2047
1954
1890
1823
1728
1600
1456
1345
1297
1333
1446
1597
1727
1797
1808
1790
1763
1774
1839
1919
1997
2031
2000
1939
1872
1842
1874
1947
2021
2075
2071
2011
1949
1899
1915
1973
2058
2115
2128
2091
2021
1968
1967
2009
2096
2171
2197
2181
2127
2070
2035
2075
2163
2254
2322
2329
2299
2264
2253
2285
2367
2459
2539
2559
2543
2483
2418
2410
2447
2513
2581
2608
2559
2495
2418
2370
2365
2397
2442
2452
2413
2320
2209
2128
2096
2112
2155
2182
2160
2103
2016
1936
1904
1939
1999
2065
2086
2063
1993
1921
1872
1875
1928
1995
2033
2019
1963
1902
1847
1847
1895
1969
2027
2035
1996
1918
1858
1845
1878
1946
2027
2064
2047
1991
1923
1884
1902
1953
2011
2047
2024
1956
1877
1815
1808
1845
1903
1951
1947
1893
1805
1726
1696
1730
1807
1881
1917
1891
1827
1753
1706
1712
1771
1843
1890
1883
1832
1763
1712
1712
1764
1838
1895
1908
1867
1793
1719
1682
1703
1758
1809
1822
1793
1731
1687
1695
1782
1937
2118
2256
2286
2213
2066
1899
1758
1661
1579
1488
1381
1264
1152
1070
1061
1131
1264
1413
1517
1558
1535
1497
1483
1508
1573
1648
1693
1686
1646
1584
1535
1555
1607
1689
1750
1776
1745
1674
1635
1619
1659
1732
1810
1855
1846
1799
1741
1703
1721
1793
1882
1939
1954
1922
1866
1823
1830
1892
1984
2095
2140
2128
2085
2035
2032
2094
2179
2277
2323
2312
2261
2204
2162
2163
2214
2286
2335
2337
2282
2192
2118
2091
2113
2169
2218
2214
2149
2054
1951
1891
1879
1929
1973
1998
1968
1886
1792
1739
1732
1782
1856
1914
1917
1869
1805
1746
1737
1776
1843
1905
1934
1905
1840
1786
1759
1777
1843
1917
1957
1949
1891
1819
1760
1761
1810
1883
1927
1943
1915
1857
1808
1806
1845
1918
1983
1994
1958
1891
1813
1775
1789
1840
1904
1926
1904
1838
1744
1689
1680
1726
1795
1841
1850
1807
1744
1690
1669
1715
1789
1862
1899
1868
1807
1731
1692
1723
1782
1857
1903
1908
1853
1783
1735
1735
1773
1840
1885
1872
1814
1731
1687
1714
1819
1968
2128
2254
2307
2266
2176
2089
2015
1952
1887
1792
1664
1519
1396
1335
1348
1453
1597
1716
1788
1803
1771
1742
1745
1803
1891
1967
1999
1978
1914
1854
1822
1856
1933
2021
2082
2082
2019
1939
1888
1889
1949
2040
2119
2139
2102
2023
1955
1931
1968
2047
2142
2191
2187
2139
2086
2054
2081
2157
2237
2307
2322
2292
2229
2189
2207
2277
2369
2447
2477
2445
2381
2322
2310
2345
2406
2475
2506
2483
2419
2339
2298
2311
2359
2400
2422
2391
2315
2224
2139
2110
2129
2178
2223
2221
2159
2057
1968
1937
1968
2031
2099
2125
2096
2027
1963
1926
1938
1993
2070
2127
2111
2058
1985
1930
1919
1959
2031
2099
2127
2097
2021
1937
1910
1938
2007
2086
2117
2109
2055
1991
1958
1971
2031
2114
2162
2153
2091
2000
1936
1914
1945
1987
2063
2069
2021
1936
1855
1819
1852
1919
1987
2020
1990
1920
1844
1806
1823
1877
1949
2000
2002
1954
1888
1839
1835
1878
1957
2015
2030
1993
1917
1850
1822
1843
1894
1949
1971
1946
1882
1811
1792
1860
1995
2173
2327
2413
2416
2341
2240
2143
2074
2011
1958
1862
1734
1593
1478
1447
1502
1623
1757
1861
1905
1898
1849
1815
1812
1867
1937
2005
2032
2003
1941
1889
1878
1925
2002
2083
2112
2086
2017
1950
1927
1963
2031
2112
2161
2158
2097
2015
1971
1984
2057
2134
2198
2219
2185
2128
2085
2077
2124
2206
2277
2320
2317
2266
2219
2213
2263
2352
2430
2480
2480
2416
2337
2283
2288
2351
2432
2499
2522
2480
2401
2320
2279
2302
2351
2405
2410
2358
2268
2176
2117
2113
2155
2207
2234
2203
2128
2033
1967
1951
1994
2061
2106
2112
2066
1989
1926
1910
1946
2015
2080
2110
2089
2022
1943
1917
1936
2003
2085
2128
2112
2053
1973
1911
1904
1953
2031
2099
2132
2119
2059
1996
1982
2022
2078
2128
2135
2091
2011
1927
1882
1892
1936
2002
2032
2001
1935
1847
1780
1771
1809
1888
1951
1969
1920
1840
1775
1753
1803
1878
1950
1988
1967
1904
1829
1783
1802
1863
1936
1984
1984
1937
1858
1806
1787
1819
1880
1929
1929
1895
1850
1825
1849
1943
2098
2243
2323
2306
2213
2075
1936
1839
1780
1744
1699
1623
1531
1448
1413
1466
1586
1728
1838
1877
1871
1831
1795
1793
1846
1930
2008
2042
2032
1979
1898
1865
1884
1943
2032
2107
2109
2063
1981
1920
1918
1970
2041
2106
2128
2098
2046
1998
1979
2017
2095
2170
2213
2198
2147
2080
2047
2081
2162
2254
2326
2352
2320
2265
2226
2247
2309
2401
2482
2511
2479
2413
2343
2319
2343
2413
2471
2509
2487
2416
2321
2252
2239
2273
2318
2345
2320
2250
2156
2076
2031
2045
2096
2139
2134
2082
1997
1920
1879
1899
1951
2031
2083
2081
2019
1946
1893
1902
1947
2019
2083
2083
2035
1965
1903
1898
1942
2018
2077
2094
2052
1970
1900
1865
1894
1973
2067
2120
2112
2053
1981
1923
1923
1971
2041
2099
2083
2015
1923
1849
1809
1831
1887
1945
1967
1922
1846
1770
1728
1744
1823
1901
1955
1950
1895
1826
1775
1778
1837
1915
1971
1975
1935
1872
1818
1801
1839
1909
1973
1993
1952
1867
1777
1731
1740
1787
1856
1904
1921
1914
1904
1938
2030
2159
2261
2297
2238
2091
1889
1691
1535
1473
1466
1497
1520
1520
1503
1489
1527
1619
1741
1858
1934
1948
1910
1845
1799
1808
1872
1961
2026
2038
1997
1930
1872
1857
1903
1975
2061
2102
2079
2009
1942
1919
1942
2014
2096
2145
2146
2101
2031
1984
1991
2062
2153
2225
2255
2229
2163
2107
2107
2164
2262
2354
2416
2416
2370
2307
2279
2305
2379
2468
2515
2521
2467
2393
2334
2327
2372
2447
2507
2512
2452
2364
2274
2230
2238
2283
2320
2320
2266
2163
2054
1977
1965
2007
2068
2107
2095
2029
1942
1883
1872
1913
1979
2035
2055
2019
1951
1885
1855
1885
1950
2013
2039
2013
1949
1880
1837
1847
1909
1991
2046
2045
1987
1917
1857
1867
1918
2001
2066
2096
2055
1975
1904
1871
1887
1936
1999
2026
1991
1918
1813
1763
1760
1803
1872
1919
1917
1866
1788
1725
1719
1767
1840
1899
1911
1872
1798
1735
1715
1749
1827
1903
1939
1917
1854
1779
1734
1753
1817
1889
1934
1921
1850
1751
1671
1646
1678
1760
1847
1926
1968
2001
2053
2118
2187
2240
2245
2179
2032
1834
1619
1439
1360
1364
1429
1494
1535
1581
1581
1589
1639
1729
1841
1934
1975
1955
1895
1831
1802
1829
1904
1990
2033
2025
1975
1913
1869
1879
1939
2027
2081
2099
2064
1999
1950
1951
2009
2097
2166
2189
2160
2103
2042
2023
2064
2143
2224
2278
2277
2232
2177
2149
2183
2262
2369
2463
2499
2478
2434
2387
2386
2434
2514
2591
2608
2594
2518
2447
2415
2422
2478
2534
2559
2529
2445
2350
2269
2237
2245
2299
2336
2324
2247
2146
2043
1991
2003
2069
2127
2147
2112
2033
1955
1904
1917
1962
2027
2072
2059
1998
1919
1867
1870
1916
1981
2035
2043
1996
1920
1855
1833
1858
1917
1975
2000
1983
1929
1872
1857
1897
1975
2059
2093
2074
2002
1918
1851
1837
1873
1938
1984
1983
1936
1854
1775
1730
1746
1808
1863
1892
1857
1792
1714
1674
1694
1763
1840
1889
1885
1837
1761
1707
1698
1747
1823
1881
1891
1856
1790
1723
1709
1738
1803
1859
1887
1856
1772
1667
1600
1600
1677
1794
1910
1998
2059
2096
2131
2162
2182
2183
2134
2013
1830
1617
1419
1296
1264
1318
1402
1483
1527
1535
1535
1561
1620
1715
1814
1895
1921
1877
1831
1777
1774
1819
1895
1963
1991
1947
1886
1823
1808
1857
1936
2009
2032
2013
1954
1888
1850
1869
1931
2018
2087
2096
2058
1988
1939
1943
2006
2100
2176
2207
2189
2142
2106
2112
2160
2245
2341
2413
2421
2390
2342
2305
2323
2391
2476
2534
2541
2490
2403
2335
2311
2334
2399
2449
2455
2409
2315
2221
2159
2156
2188
2217
2209
2161
2082
1989
1927
1920
1956
2007
2043
2039
1987
1917
1859
1843
1881
1953
2011
2030
1997
1920
1842
1808
1831
1903
1968
2009
1998
1943
1877
1827
1838
1886
1946
1986
1979
1927
1856
1803
1797
1853
1936
2009
2032
2004
1941
1869
1839
1853
1903
1950
1970
1943
1887
1807
1745
1738
1771
1829
1871
1863
1808
1731
1673
1671
1709
1776
1841
1869
1840
1776
1713
1680
1712
1774
1835
1872
1859
1811
1744
1700
1709
1771
1843
1898
1901
1857
1765
1680
1642
1665
1745
1856
1941
1997
2032
2078
2138
2193
2244
2267
2224
2089
1881
1664
1472
1369
1362
1414
1487
1535
1560
1558
1569
1617
1712
1829
1917
1959
1946
1888
1824
1791
1808
1872
1955
2001
2001
1943
1882
1846
1855
1919
2000
2074
2090
2055
1985
1926
1906
1954
2036
2117
2151
2133
2074
1997
1962
1987
2071
2160
2224
2231
2192
2139
2111
2129
2202
2293
2375
2412
2381
2320
2273
2271
2330
2421
2503
2534
2495
2423
2353
2320
2333
2378
2434
2473
2463
2403
2315
2231
2195
2207
2241
2279
2273
2205
2111
2000
1942
1952
2003
2070
2097
2075
2011
1940
1904
1908
1966
2032
2086
2096
2035
1968
1921
1926
1984
2061
2118
2127
2081
2001
1930
1895
1929
2000
2078
2111
2089
2017
1938
1901
1926
1999
2093
2151
2155
2099
2011
1942
1927
1973
2042
2101
2114
2070
1989
1907
1859
1866
1919
1979
2007
1989
1936
1862
1813
1812
1859
1936
1994
1990
1941
1872
1825
1824
1882
1949
2006
2019
1985
1916
1855
1826
1859
1918
1978
2007
1979
1902
1808
1749
1763
1855
1974
2097
2183
2236
2256
2256
2258
2277
2284
2225
2117
1951
1756
1590
1480
1462
1517
1603
1680
1708
1688
1648
1637
1693
1799
1913
1987
2005
1968
1907
1872
1879
1929
2000
2077
2103
2066
2002
1937
1909
1936
2004
2089
2129
2122
2072
2001
1968
1983
2058
2141
2201
2210
2161
2087
2032
2027
2082
2162
2243
2277
2256
2210
2158
2136
2175
2256
2348
2411
2415
2381
2317
2279
2291
2355
2432
2507
2521
2471
2385
2310
2290
2329
2395
2443
2439
2390
2305
2219
2160
2158
2188
2229
2247
2213
2134
2044
1974
1956
1987
2043
2087
2090
2037
1958
1882
1861
1894
1965
2037
2073
2038
1965
1889
1858
1879
1967
2046
2105
2096
2029
1946
1892
1888
1936
2011
2069
2086
2045
1981
1924
1919
1962
2026
2091
2105
2067
1983
1904
1867
1888
1934
1998
2031
1995
1918
1818
1745
1723
1773
1845
1917
1931
1895
1822
1751
1726
1755
1826
1903
1937
1919
1850
1776
1734
1755
1827
1917
1967
1965
1911
1831
1773
1755
1792
1855
1899
1895
1843
1765
1702
1711
1799
1946
2116
2256
2289
2238
2131
2011
1931
1872
1830
1765
1658
1520
1393
1324
1345
1447
1595
1723
1796
1805
1770
1739
1743
1792
1873
1957
1996
1982
1920
1847
1808
1833
1907
1998
2065
2067
2019
1946
1899
1899
1954
2031
2108
2135
2103
2032
1965
1941
1973
2037
2112
2146
2139
2098
2043
2005
2027
2098
2192
2269
2289
2253
2192
2158
2177
2256
2349
2430
2463
2435
2377
2315
2294
2326
2398
2467
2499
2469
2390
2307
2256
2256
2303
2355
2386
2370
2295
2193
2112
2067
2094
2134
2176
2180
2128
2038
1958
1904
1911
1961
2029
2077
2065
1999
1919
1869
1875
1941
2023
2091
2089
2032
1955
1887
1867
1910
1986
2064
2089
2046
1968
1894
1866
1906
1998
2107
2176
2176
2125
2057
2005
2009
2064
2128
2165
2151
2081
1975
1904
1879
1917
1984
2054
2073
2032
1951
1872
1832
1849
1911
1982
2022
1985
1936
1856
1808
1817
1874
1955
2020
2025
1984
1915
1854
1840
1878
1949
2016
2032
2000
1915
1827
1767
1773
1821
1895
1959
1986
1994
2000
2032
2103
2186
2241
2237
2147
1983
1795
1617
1487
1446
1474
1535
1599
1631
1636
1631
1659
1723
1833
1941
2015
2027
1983
1917
1872
1878
1940
2021
2086
2094
2041
1978
1917
1905
1963
2060
2145
2186
2160
2089
2005
1969
1996
2074
2160
2214
2213
2153
2074
2015
2021
2096
2193
2287
2317
2282
2212
2159
2156
2209
2311
2416
2470
2473
2426
2370
2345
2371
2447
2541
2606
2604
2533
2448
2379
2375
2416
2499
2559
2559
2501
2399
2303
2240
2246
2288
2330
2335
2279
2179
2068
1983
1986
2032
2114
2165
2150
2064
1965
1886
1874
1929
2014
2094
2109
2067
1982
1904
1869
1904
1987
2067
2101
2066
1991
1904
1850
1849
1916
1995
2071
2087
2047
1982
1925
1916
1961
2034
2090
2093
2035
1943
1859
1818
1838
1904
1970
1995
1954
1872
1775
1721
1722
1779
1858
1914
1906
1856
1779
1714
1698
1745
1828
1898
1921
1881
1809
1734
1703
1738
1814
1897
1935
1916
1856
1784
1728
1733
1789
1856
1891
1869
1789
1692
1644
1679
1797
1969
2150
2276
2291
2227
2096
1959
1856
1785
1730
1644
1527
1403
1294
1237
1280
1411
1587
1738
1813
1821
1781
1746
1761
1827
1917
1993
2022
1983
1915
1842
1815
1844
1927
2018
2072
2061
1995
1920
1876
1889
1957
2042
2117
2130
2095
2016
1955
1945
1998
2099
2182
2221
2197
2132
2072
2055
2095
2177
2272
2341
2354
2320
2266
2237
2256
2340
2441
2526
2558
2534
2475
2417
2399
2434
2512
2585
2608
2559
2490
2404
2361
2343
2382
2431
2445
2401
2315
2202
2112
2079
2108
2160
2209
2197
2128
2032
1949
1913
1933
1991
2057
2079
2039
1968
1890
1855
1873
1945
2023
2065
2047
1987
1904
1845
1835
1885
1957
2026
2041
2000
1927
1865
1850
1904
1984
2058
2076
2035
1955
1869
1821
1829
1890
1969
2013
1994
1920
1823
1756
1744
1790
1857
1911
1917
1867
1790
1713
1689
1721
1792
1869
1897
1872
1805
1727
1677
1689
1755
1840
1894
1889
1835
1750
1702
1707
1770
1849
1913
1921
1866
1771
1675
1619
1637
1715
1810
1889
1931
1961
1994
2046
2127
2209
2254
2223
2096
1887
1648
1429
1299
1278
1318
1387
1439
1458
1467
1470
1510
1607
1727
1840
1905
1905
1855
1778
1739
1757
1825
1910
1967
1970
1923
1861
1808
1808
1854
1927
1999
2022
2001
1953
1884
1862
1897
1968
2039
2090
2078
2007
1936
1903
1936
2015
2111
2177
2191
2166
2117
2089
2101
2164
2259
2352
2393
2384
2337
2286
2267
2305
2387
2474
2513
2491
2431
2359
2316
2310
2357
2430
2480
2471
2411
2313
2223
2173
2170
2201
2228
2231
2176
2096
2016
1962
1955
1990
2027
2064
2034
1967
1893
1841
1841
1883
1947
1998
2007
1968
1893
1818
1803
1845
1925
1997
2020
1992
1920
1847
1811
1819
1872
1936
1973
1957
1909
1847
1815
1835
1899
1973
2032
2047
2019
1941
1870
1827
1843
1886
1934
1939
1891
1813
1735
1686
1695
1755
1825
1872
1862
1808
1733
1680
1679
1726
1792
1846
1852
1814
1747
1698
1693
1743
1810
1879
1917
1898
1837
1763
1714
1713
1745
1802
1832
1821
1749
1673
1619
1639
1732
1879
2043
2176
2246
2224
2161
2103
2055
2000
1932
1815
1663
1484
1339
1263
1271
1351
1468
1590
1654
1666
1649
1642
1664
1729
1821
1906
1936
1915
1858
1803
1777
1809
1872
1941
1975
1966
1922
1873
1840
1847
1906
1984
2032
2037
1986
1922
1871
1874
1934
2007
2071
2100
2069
2003
1955
1945
1987
2082
2167
2221
2218
2183
2141
2134
2165
2240
2343
2414
2433
2383
2325
2291
2301
2356
2438
2496
2512
2471
2399
2320
2277
2283
2323
2367
2378
2337
2256
2174
2112
2097
2125
2173
2195
2178
2098
1989
1904
1869
1903
1971
2037
2064
2023
1947
1872
1843
1872
1940
2011
2059
2042
1984
1909
1869
1872
1920
1983
2046
2057
2002
1921
1859
1855
1907
1999
2090
2122
2096
2020
1942
1904
1917
1974
2039
2070
2045
1968
1882
1827
1819
1853
1904
1936
1930
1876
1803
1744
1734
1778
1854
1920
1943
1910
1845
1776
1744
1763
1835
1902
1936
1919
1863
1799
1767
1782
1843
1909
1959
1953
1899
1809
1735
1716
1744
1808
1886
1933
1955
1957
1979
2047
2173
2287
2371
2369
2287
2123
1915
1723
1611
1556
1555
1566
1561
1523
1494
1494
1535
1648
1769
1869
1904
1884
1827
1774
1766
1809
1889
1970
2018
2015
1968
1905
1869
1875
1935
2003
2064
2071
2018
1956
1904
1904
1955
2037
2103
2128
2106
2035
1968
1941
1979
2064
2157
2219
2219
2169
2111
2067
2090
2167
2260
2343
2367
2350
2299
2240
2234
2283
2368
2446
2488
2454
2386
2307
2256
2277
2339
2415
2441
2416
2351
2268
2202
2181
2207
2256
2282
2270
2206
2112
2011
1956
1964
2011
2063
2086
2059
1991
1929
1888
1908
1968
2047
2104
2097
2036
1958
1895
1890
1938
2009
2081
2095
2064
1986
1907
1872
1907
1968
2026
2063
2039
1995
1943
1918
1936
1993
2071
2112
2109
2043
1954
1875
1856
1895
1956
2002
2001
1949
1849
1782
1751
1776
1845
1919
1952
1925
1856
1778
1732
1744
1805
1875
1926
1923
1879
1811
1766
1762
1808
1892
1968
1991
1949
1858
1767
1728
1743
1803
1859
1881
1853
1781
1725
1708
1766
1885
2042
2195
2279
2258
2177
2068
1959
1899
1857
1806
1719
1600
1467
1371
1354
1418
1535
1673
1765
1795
1775
1743
1729
1769
1847
1939
2001
2011
1969
1911
1856
1849
1894
1971
2042
2075
2047
1984
1919
1891
1917
1984
2067
2110
2102
2045
1982
1939
1962
2022
2115
2177
2192
2159
2091
2035
2057
2119
2215
2295
2331
2313
2266
2218
2198
2227
2295
2384
2443
2450
2415
2353
2306
2308
2366
2435
2491
2493
2432
2347
2273
2240
2255
2307
2352
2353
2306
2219
2123
2066
2063
2103
2146
2160
2125
2047
1965
1904
1904
1950
2027
2087
2095
2045
1971
1913
1895
1931
2000
2074
2096
2064
1995
1918
1882
1904
1973
2055
2102
2098
2042
1968
1918
1927
1979
2058
2114
2127
2079
2005
1942
1908
1936
1994
2043
2059
2017
1943
1861
1811
1814
1867
1921
1957
1935
1868
1790
1733
1733
1783
1868
1934
1952
1916
1849
1792
1779
1819
1891
1962
1988
1964
1895
1827
1797
1819
1870
1919
1946
1907
1838
1745
1678
1664
1712
