2219
2208
2192
2215
2235
2237
2240
2230
2219
2206
2182
2164
2171
2185
2203
2194
2177
2160
2137
2139
2153
2155
2148
2145
2148
2171
2192
2206
2186
2166
2167
2173
2192
2205
2224
2240
2253
2257
2282
2307
2327
2367
2450
2506
2550
2539
2450
2334
2197
2066
1984
1934
1895
1831
1750
1701
1685
1716
1787
1863
1920
1953
1967
1968
1974
1981
2025
2096
2117
2114
2096
2083
2069
2076
2096
2096
2055
2015
1974
1922
1857
1826
1803
1803
1808
1806
1811
1815
1799
1806
1811
1837
1870
1893
1893
1881
1868
1857
1858
1875
1902
1916
1923
1919
1910
1902
1923
1968
2033
2100
2138
2149
2151
2151
2160
2169
2192
2259
2318
2335
2315
2289
2286
2291
2295
2294
2304
2303
2285
2253
2227
2214
2209
2229
2250
2251
2239
2227
2181
2140
2112
2107
2112
2127
2130
2127
2103
2071
2047
2058
2070
2106
2102
2097
2079
2058
2045
2030
2003
2006
2054
2110
2122
2094
2032
2000
1993
1994
2013
2033
2030
2007
1995
1979
1967
1974
2005
2033
2034
2011
1991
1986
1991
2015
2033
2053
2069
2047
2034
1986
1963
1986
1995
2019
2066
2075
2066
2037
2010
2000
2021
2032
2046
2037
2036
2029
2020
2030
2034
2046
2043
2034
2013
1996
1969
1951
1945
1940
1953
1975
1983
1980
1966
1965
1973
1996
1986
1995
2004
1981
1959
1963
1973
1999
2017
2014
2001
1989
1971
1951
1931
1927
1950
1964
1968
1940
1909
1906
1918
1947
1984
2010
2009
2003
1999
1979
1966
1958
1969
1987
2005
2026
2029
2009
1970
1939
1923
1935
1937
1955
1968
1951
1910
1881
1874
1875
1891
1927
1971
2005
2006
1984
1959
1951
1950
1938
1936
1936
1950
1957
1972
1997
2016
2034
2059
2063
2046
2006
1990
2014
2045
2109
2172
2247
2303
2332
2339
2339
2331
2288
2192
2083
1971
1870
1778
1690
1663
1658
1646
1653
1678
1710
1724
1728
1755
1812
1872
1920
1936
1931
1921
1917
1905
1897
1893
1917
1935
1919
1918
1926
1936
1937
1959
1969
1971
1968
1955
1943
1918
1930
1967
1979
2003
2010
2007
1994
1967
1937
1946
1962
1998
2022
2023
2013
1998
1980
1997
2019
2047
2064
2059
2062
2055
2034
2034
2053
2090
2123
2148
2153
2137
2126
2103
2101
2099
2132
2195
2218
2209
2187
2164
2156
2141
2130
2135
2137
2109
2090
2075
2053
2046
2055
2062
2071
2046
2005
1980
1957
1957
1970
1974
1952
1936
1936
1933
1917
1918
1919
1946
1959
1941
1911
1883
1873
1888
1917
1952
1974
1983
1971
1951
1922
1915
1942
1969
1979
1969
1967
1957
1934
1919
1919
1927
1948
1955
1966
1968
1957
1928
1906
1914
1937
1964
1973
1950
1913
1875
1872
1918
1972
1998
2007
1991
1968
1947
1939
1936
1931
1945
1956
1978
1982
1971
1940
1930
1937
1965
1970
1957
1939
1919
1904
1894
1889
1886
1917
1933
1922
1914
1912
1901
1904
1936
1968
1988
1986
1974
1936
1874
1856
1872
1890
1903
1910
1911
1904
1882
1887
1916
1947
1964
1974
1951
1903
1859
1845
1854
1880
1905
1941
1955
1942
1927
1920
1906
1909
1933
1965
1986
1967
1950
1949
1959
1975
1991
2010
2002
1983
1953
1910
1895
1915
1968
2003
2014
1999
1968
1921
1897
1883
1866
1870
1888
1899
1904
1920
1935
1950
1957
1948
1926
1905
1897
1893
1903
1914
1936
1974
2020
2031
2010
1990
1979
1971
1971
1972
1999
2067
2130
2181
2251
2298
2322
2339
2366
2366
2320
2224
2096
1970
1877
1806
1735
1690
1680
1680
1670
1666
1674
1693
1723
1773
1814
1834
1841
1852
1863
1872
1879
1897
1904
1907
1904
1891
1866
1869
1895
1919
1950
1957
1947
1939
1931
1926
1926
1933
1929
1937
1959
1969
1963
1959
1964
1978
1987
1995
2010
2000
1973
1950
1945
1939
1965
2010
2033
2053
2039
2010
1982
1987
2023
2056
2085
2101
2098
2084
2069
2058
2075
2114
2142
2160
2181
2195
2171
2131
2113
2130
2163
2174
2153
2130
2101
2091
2096
2105
2095
2101
2123
2113
2069
2032
2017
2014
2006
2018
2025
2001
1965
1937
1953
1968
1968
1977
1978
1963
1931
1904
1909
1918
1936
1934
1935
1942
1952
1939
1923
1909
1920
1946
1962
1945
1921
1909
1918
1929
1926
1952
1979
1987
1983
1950
1927
1916
1920
1926
1936
1951
1963
1959
1958
1951
1939
1963
1984
2006
2027
2026
2023
2005
1976
1947
1936
1968
1999
2012
2010
1983
1946
1946
1955
1957
1936
1938
1942
1935
1919
1914
1927
1935
1953
1965
1957
1931
1903
1903
1926
1953
1984
1999
1997
1965
1918
1883
1879
1894
1935
1968
1982
1966
1920
1900
1903
1909
1925
1943
1973
1968
1952
1927
1919
1909
1915
1949
1965
1968
1961
1934
1906
1878
1874
1903
1927
1943
1931
1921
1920
1927
1935
1959
1990
1997
1984
1965
1939
1919
1930
1963
1994
2057
2074
2064
2036
2015
2005
2033
2066
2087
2064
2016
1965
1904
1893
1920
1955
1975
1979
1959
1937
1933
1911
1904
1918
1941
1968
1966
1955
1920
1889
1872
1875
1904
1946
1967
1968
1975
1975
1971
1995
2032
2057
2064
2061
2004
1955
1935
1995
2086
2170
2274
2341
2368
2368
2362
2357
2306
2225
2134
2053
1947
1824
1719
1646
1600
1599
1619
1650
1666
1677
1677
1693
1733
1773
1811
1865
1904
1925
1936
1922
1916
1921
1930
1935
1931
1936
1936
1921
1921
1936
1959
1987
1999
2006
1998
1966
1927
1910
1923
1965
2007
2032
2021
1997
1975
1979
2007
2032
2037
2032
2030
2009
1990
1973
1971
1984
2001
2039
2077
2070
2059
2034
2039
2073
2118
2157
2176
2179
2158
2131
2131
2158
2176
2202
2208
2192
2155
2117
2096
2082
2106
2150
2176
2180
2162
2126
2096
2080
2089
2093
2080
2063
2043
2032
2011
2011
2017
2005
1999
1999
2009
1991
1963
1951
1938
1955
1977
1989
1995
1983
1966
1946
1930
1925
1943
1935
1905
1867
1850
1853
1867
1910
1936
1968
1974
1970
1954
1933
1913
1907
1925
1936
1935
1930
1936
1921
1912
1937
1969
1990
2002
2004
1990
1951
1920
1901
1898
1909
1923
1941
1943
1946
1968
1984
1958
1917
1905
1936
1958
1963
1949
1947
1947
1949
1959
1962
1950
1919
1899
1875
1872
1887
1903
1927
1943
1947
1927
1902
1891
1895
1921
1950
1975
1967
1936
1904
1894
1885
1901
1935
1964
1970
1935
1885
1871
1862
1886
1897
1935
1977
2003
2006
1983
1949
1921
1904
1909
1934
1936
1923
1908
1891
1899
1918
1941
1959
1942
1903
1871
1865
1882
1926
1982
2002
2011
1998
1984
1961
1939
1937
1937
1935
1938
1936
1924
1907
1894
1902
1923
1946
1968
1969
1943
1911
1888
1867
1870
1891
1920
1963
1973
1954
1938
1933
1931
1951
1967
1980
2000
2011
2001
1995
2000
2059
2094
2109
2111
2095
2060
2037
2064
2130
2219
2298
2355
2403
2418
2423
2384
2299
2179
2061
1942
1824
1696
1604
1555
1555
1584
1619
1671
1725
1759
1774
1792
1810
1856
1920
1968
1989
1973
1936
1903
1890
1917
1949
1987
2015
2007
1972
1937
1913
1905
1932
1979
2026
2042
2032
2000
1970
1961
1965
1983
2015
2062
2087
2071
2039
2027
2033
2062
2085
2096
2110
2110
2089
2059
2054
2067
2081
2081
2077
2089
2096
2095
2096
2125
2174
2218
2239
2238
2213
2186
2176
2178
2185
2202
2223
2227
2213
2191
2177
2158
2158
2207
2226
2213
2181
2157
2133
2119
2123
2128
2147
2160
2138
2093
2041
2034
2041
2045
2045
2037
2032
2015
1984
1953
1931
1941
1973
2006
2021
2000
1974
1938
1910
1906
1921
1936
1967
1979
1973
1957
1950
1942
1952
1975
1993
1995
1974
1973
1943
1931
1946
1978
2022
2035
2022
2000
1971
1953
1958
1981
2025
2063
2059
2039
1999
1995
2004
2029
2043
2046
2045
2031
2001
1971
1954
1953
1968
1998
2021
2018
1993
1973
1964
1964
1968
1968
1963
1958
1945
1938
1936
1962
1969
1972
1983
1989
1971
1936
1924
1953
1989
2022
2043
2027
2001
1983
1968
1937
1922
1941
1968
1977
1974
1990
1999
2000
1999
1997
2000
2000
2002
1991
1981
1981
1979
1993
2000
2027
2045
2042
2015
2000
2010
2015
2013
1989
1950
1911
1907
1903
1908
1939
1970
1999
2012
2017
2000
1973
1954
1936
1946
1981
2013
2031
2026
2011
1984
1959
1964
1976
1994
2022
2043
2053
2039
2026
2039
2062
2076
2085
2096
2102
2103
2128
2171
2235
2298
2363
2395
2358
2283
2179
2055
1929
1836
1795
1759
1710
1664
1631
1604
1616
1667
1734
1794
1825
1843
1847
1851
1872
1907
1945
1984
2000
2001
1997
1984
1973
1983
2000
2021
2026
2003
1954
1917
1920
1969
2000
2032
2046
2037
2011
2010
2019
2022
2031
2041
2042
2062
2062
2043
2029
2021
2031
2066
2096
2110
2119
2115
2086
2063
2064
2093
2115
2128
2151
2178
2183
2166
2146
2145
2174
2196
2209
2211
2195
2183
2173
2186
2215
2234
2230
2212
2185
2155
2130
2113
2114
2132
2145
2145
2132
2103
2083
2067
2082
2106
2118
2115
2092
2043
2013
1979
1953
1957
1968
1981
1983
1963
1937
1901
1867
1844
1874
1941
1977
1975
1947
1925
1897
1889
1873
1886
1879
1862
1854
1856
1845
1853
1873
1893
1919
1939
1923
1903
1882
1879
1889
1906
1918
1925
1933
1931
1936
1932
1918
1915
1915
1940
1949
1937
1909
1858
1856
1877
1920
1943
1938
1919
1904
1890
1899
1921
1936
1940
1933
1904
1875
1858
1845
1858
1890
1890
1897
1903
1889
1866
1837
1840
1825
1825
1856
1867
1867
1883
1873
1863
1879
1894
1911
1936
1935
1904
1875
1853
1840
1821
1835
1872
1900
1925
1922
1911
1909
1918
1939
1957
1940
1910
1881
1850
1829
1824
1827
1838
1831
1791
1765
1776
1792
1807
1831
1846
1873
1870
1833
1791
1754
1749
1762
1777
1805
1825
1835
1815
1808
1834
1855
1858
1902
1946
1952
1925
1910
1883
1871
1877
1906
1938
1968
1995
2032
2083
2130
2173
2205
2221
2195
2117
1996
1855
1751
1694
1628
1553
1502
1461
1455
1455
1457
1475
1515
1567
1595
1616
1648
1652
1653
1680
1736
1776
1810
1813
1792
1748
1726
1728
1737
1753
1798
1831
1823
1782
1738
1722
1724
1743
1774
1786
1763
1721
1709
1746
1778
1807
1825
1837
1826
1826
1808
1794
1785
1793
1809
1846
1861
1866
1844
1826
1834
1867
1914
1939
1949
1935
1903
1876
1871
1887
1914
1931
1942
1937
1914
1887
1869
1863
1885
1931
1967
1967
1952
1925
1905
1882
1866
1871
1885
1877
1858
1808
1759
1717
1730
1769
1787
1786
1757
1746
1747
1735
1731
1734
1745
1751
1755
1737
1687
1651
1626
1615
1635
1655
1648
1638
1639
1627
1622
1629
1637
1627
1619
1632
1633
1617
1610
1612
1651
1714
1745
1760
1759
1739
1707
1678
1680
1687
1693
1709
1702
1690
1679
1654
1658
1677
1713
1744
1765
1747
1715
1683
1679
1701
1714
1735
1742
1703
1650
1609
1594
1629
1686
1699
1713
1730
1712
1691
1671
1680
1723
1765
1793
1805
1776
1754
1738
1712
1706
1728
1760
1767
1731
1701
1676
1664
1658
1680
1722
1749
1745
1728
1712
1703
1713
1721
1757
1798
1806
1782
1762
1735
1747
1778
1827
1854
1859
1854
1840
1811
1788
1782
1774
1773
1777
1789
1786
1759
1727
1712
1714
1747
1776
1782
1785
1771
1747
1743
1742
1755
1786
1808
1805
1792
1790
1795
1830
1881
1936
1969
1991
1997
1971
1921
1882
1878
1924
2002
2073
2147
2193
2213
2199
2173
2147
2116
2046
1936
1808
1694
1605
1535
1522
1535
1535
1568
1599
1625
1662
1692
1728
1770
1794
1796
1793
1773
1789
1826
1871
1911
1930
1938
1931
1901
1858
1840
1847
1893
1937
1968
1970
1943
1901
1887
1883
1887
1904
1926
1936
1925
1904
1895
1903
1919
1941
1979
2000
2000
1984
1949
1936
1950
1975
2019
2038
2027
2015
2030
2062
2080
2086
2105
2128
2157
2166
2160
2131
2124
2139
2172
2203
2205
2177
2140
2112
2096
2084
2115
2157
2171
2173
2156
2129
2091
2044
2021
2015
2033
2063
2059
2025
2003
2001
2004
2014
2028
2044
2034
2014
1973
1958
1965
1969
1979
1984
1983
1957
1924
1920
1923
1930
1925
1935
1947
1949
1919
1893
1898
1903
1904
1946
1974
1983
1958
1936
1953
1954
1951
1965
1969
1978
1981
1968
1938
1926
1923
1934
1958
1968
1968
1968
1943
1947
1980
2011
2029
2064
2039
2000
1959
1930
1930
1953
1975
2005
2006
1970
1933
1918
1933
1941
1957
1968
1973
1962
1942
1947
1935
1936
1981
2023
2043
2046
2024
1969
1937
1962
1998
2005
2005
1999
1985
1968
1947
1931
1930
1943
1970
1998
2005
1991
1961
1927
1933
1943
1979
2016
2031
2033
2047
2037
2035
2054
2082
2118
2104
2070
2034
2000
1974
1951
1957
1971
1969
1962
1941
1930
1925
1919
1936
1963
1968
1983
1969
1946
1927
1934
1957
1974
1978
1985
1991
1982
1984
1999
2030
2061
2128
2176
2171
2109
2076
2080
2112
2190
2282
2358
2410
2429
2435
2427
2381
2327
2263
2171
2075
1963
1846
1761
1686
1635
1614
1637
1689
1729
1744
1759
1782
1826
1899
1956
1991
1987
1966
1935
1952
1987
2007
2026
2034
2033
2007
1984
1979
1991
2005
2025
2029
2032
2032
2030
2025
2007
1997
2000
2035
2054
2023
1997
1975
1972
1991
2032
2094
2126
2140
2143
2123
2094
2064
2064
2081
2118
2146
2163
2160
2157
2160
2185
2218
2243
2258
2257
2250
2242
2227
2208
2207
2235
2271
2289
2293
2269
2241
2239
2238
2241
2233
2211
2196
2165
2146
2139
2133
2142
2143
2138
2143
2131
2110
2096
2096
2111
2125
2122
2098
2076
2038
2013
2011
2000
2010
2031
2061
2053
2031
1997
1979
1975
1979
2011
2032
2032
2014
2011
2005
2007
2020
2047
2062
2059
2047
2031
2019
2030
2032
2040
2063
2087
2087
2071
2060
2035
2047
2068
2091
2089
2065
2036
2018
2011
1998
1999
2043
2094
2110
2091
2047
2022
2011
2010
2032
2081
2103
2081
2043
2033
2019
2014
2007
2017
2038
2063
2043
2015
1994
2006
2017
2029
2031
2059
2067
2062
2025
1991
1991
2009
2043
2058
2031
2000
1972
1975
1978
2000
2045
2099
2090
2054
2031
2023
2054
2098
2146
2176
2175
2138
2094
2047
2045
2061
2077
2071
2064
2042
2010
1984
1968
1973
2000
2042
2063
2060
2035
2017
1999
1983
1983
2001
2019
2017
2015
2021
2015
2032
2062
2093
2119
2149
2151
2147
2121
2109
2106
2129
2143
2151
2175
2192
2225
2274
2346
2422
2497
2556
2539
2437
2304
2146
2000
1911
1845
1797
1748
1711
1684
1678
1688
1710
1749
1798
1859
1916
1941
1939
1923
1927
1961
2004
2070
2096
2089
2067
2030
2023
2054
2060
2069
2086
2096
2079
2037
2023
2032
2047
2083
2103
2122
2129
2137
2128
2114
2125
2146
2162
2158
2139
2115
2094
2082
2071
2090
2126
2160
2193
2196
2177
2167
2177
2218
2257
2267
2251
2229
2215
2218
2255
2281
2307
2321
2323
2319
2304
2272
2257
2271
2273
2291
2314
2303
2291
2273
2256
2262
2284
2297
2284
2247
2225
2205
2176
2154
2154
2160
2171
2174
2151
2103
2062
2034
2045
2081
2119
2133
2131
2113
2090
2084
2082
2092
2107
2113
2099
2075
2041
2015
2000
1998
2022
2079
2108
2094
2080
2069
2069
2067
2071
2080
2109
2143
2147
2128
2105
2096
2100
2109
2127
2132
2115
2090
2060
2055
2079
2112
2128
2117
2108
2089
2086
2079
2067
2077
2096
2109
2109
2084
2032
2001
1994
2022
2046
2069
2115
2128
2113
2106
2100
2086
2078
2095
2067
2055
2031
2000
1984
1979
2003
2061
2091
2095
2061
2029
2019
2013
2026
2027
2035
2028
2029
2021
2023
2047
2071
2112
2138
2151
2155
2118
2086
2077
2081
2102
2127
2112
2096
2060
2001
1966
1949
1967
1974
2000
2032
2047
2047
2047
2043
2057
2059
2054
2061
2033
2000
1973
1983
2000
2021
2047
2083
2097
2100
2089
2082
2109
2129
2159
2171
2187
2189
2190
2195
2243
2306
2363
2416
2448
2432
2353
2231
2112
1997
1919
1863
1808
1717
1631
1585
1595
1616
1655
1711
1790
1863
1888
1898
1909
1925
1954
1996
2033
2061
2064
2038
2018
2000
2000
1989
1998
2001
2000
1985
1983
1978
1986
2032
2098
2153
2174
2149
2097
2059
2019
2012
2034
2083
2096
2101
2103
2106
2101
2095
2107
2128
2133
2128
2128
2121
2129
2154
2183
2239
2271
2279
2263
2247
2227
2222
2239
2274
2317
2326
2310
2269
2243
2229
2235
2258
2288
2288
2297
2287
2268
2239
2224
2234
2250
2240
2251
2239
2206
2155
2135
2148
2157
2175
2186
2171
2130
2085
2064
2053
2043
2071
2095
2079
2036
2026
2002
1999
2013
2025
2035
2035
2013
1994
1963
1935
1936
1959
1995
2019
2016
2011
1984
1968
1957
1985
2019
2039
2047
2032
2023
2014
1994
1990
2000
2017
2032
2047
2033
2014
1997
2000
2010
2034
2065
2060
2047
2014
1979
1961
1966
1994
2027
2031
2031
2021
2002
1997
2005
2032
2047
2029
2003
1995
1982
1959
1950
1965
1984
2010
2000
1983
1970
1938
1923
1922
1951
1977
1993
2000
1997
1970
1950
1943
1962
1989
2003
2007
1979
1983
2014
2058
2069
2096
2107
2096
2035
1987
1963
1965
1956
1979
2006
1984
1970
1937
1913
1901
1913
1939
1975
1990
1975
1947
1908
1903
1930
1952
1972
1984
1968
1936
1922
1917
1936
1984
2032
2077
2096
2099
2091
2069
2080
2083
2080
2083
2096
2129
2165
2202
2254
2314
2379
2399
2362
2283
2176
2047
1939
1849
1771
1711
1665
1638
1624
1637
1662
1697
1744
1793
1828
1859
1874
1873
1851
1842
1872
1904
1950
2000
2029
2019
1998
2001
2003
2000
2003
2022
2038
2030
2000
1985
1994
2017
2042
2055
2047
2042
2031
1999
1981
1991
2011
2011
2018
2028
2025
2018
2015
2014
2053
2105
2131
2139
2128
2114
2102
2098
2121
2141
2142
2141
2146
2157
2154
2158
2192
2225
2251
2246
2211
2196
2210
2224
2247
2254
2259
2258
2235
2209
2187
2156
2122
2112
2123
2135
2145
2139
2119
2098
2068
2065
2083
2074
2063
2063
2035
2000
1977
2000
2033
2059
2066
2055
2023
1985
1941
1914
1922
1938
1970
1998
2000
1987
1963
1947
1950
1979
2014
2018
2010
1985
1959
1936
1930
1926
1954
1973
1973
1961
1923
1907
1917
1941
1989
2015
2017
2029
2032
2003
1977
1999
2035
2043
2038
2027
1995
1965
1959
1968
1983
1991
2020
2038
2032
1999
1979
1961
1963
1970
1986
2003
2013
1989
1957
1942
1938
1948
1966
1989
1975
1938
1914
1920
1963
1992
2027
2047
2074
2047
2018
1985
1983
2003
2014
2000
1991
2028
2039
2047
2032
2023
2022
2018
2022
2019
1995
1963
1926
1904
1918
1939
1954
1948
1934
1931
1921
1906
1907
1919
1936
1951
1959
1961
1949
1927
1903
1922
1958
1987
2001
2003
1997
1973
1971
2002
2038
2069
2069
2078
2037
2013
2016
2035
2103
2178
2252
2302
2324
2319
2288
2243
2183
2101
2003
1903
1776
1649
1563
1521
1535
1600
1649
1712
1743
1758
1787
1791
1791
1844
1909
1953
1968
1963
1937
1910
1898
1902
1904
1920
1925
1917
1922
1915
1909
1923
1947
1963
1962
1951
1940
1936
1935
1945
1958
1978
1987
1989
1971
1943
1923
1942
1977
2016
2064
2067
2045
2020
2006
2000
2007
2013
2032
2062
2074
2075
2071
2074
2095
2128
2190
2222
2234
2218
2186
2160
2165
2167
2177
2192
2189
2167
2160
2128
2107
2101
2112
2135
2154
2137
2108
2093
2081
2075
2075
2081
2076
2061
2025
2002
1983
1973
1972
1973
1981
1982
1964
1920
1893
1892
1913
1958
2000
2023
2012
1990
1959
1949
1938
1934
1935
1939
1930
1916
1901
1903
1902
1917
1961
1982
1990
1975
1961
1936
1923
1927
1950
1985
1998
1975
1950
1921
1913
1910
1913
1927
1968
1973
1938
1936
1936
1945
1973
1998
1985
1974
1974
1965
1955
1949
1965
1982
1994
1997
1990
1967
1935
1902
1888
1923
1974
1991
1985
1967
1930
1903
1888
1893
1918
1947
1966
1962
1939
1927
1915
1933
1949
1974
2000
2001
1985
1970
1973
1979
1995
2004
2027
2023
2010
1999
1998
1994
1996
2003
2000
1994
1973
1926
1889
1867
1875
1908
1930
1936
1927
1917
1904
1906
1917
1929
1939
1947
1933
1915
1921
1936
1963
1989
2023
2044
2057
2064
2037
2007
2003
2015
2032
2071
2099
2135
2177
2231
2295
2361
2394
2390
2351
2288
2176
2032
1909
1811
1741
1683
1648
1621
1627
1637
1641
1654
1699
1775
1838
1893
1904
1898
1888
1886
1891
1919
1959
1986
2000
1991
1959
1941
1935
1939
1958
1979
1984
1971
1947
1946
1971
2007
2033
2047
2067
2042
2010
1983
1974
1977
2009
2037
2063
2045
2027
2001
1991
2005
2045
2080
2096
2097
2070
2041
2027
2047
2085
2112
2121
2125
2128
2131
2135
2151
2178
2215
2224
2218
2194
2163
2149
2145
2192
2242
2247
2240
2221
2185
2132
2098
2078
2064
2081
2106
2119
2110
2094
2066
2032
2007
2000
2001
2000
2000
1999
1963
1926
1911
1922
1951
1975
1974
1946
1925
1904
1899
1917
1940
1965
1993
2003
1983
1946
1933
1926
1922
1930
1957
1975
1967
1949
1923
1924
1957
1983
2012
2029
2013
1969
1923
1903
1921
1952
1991
2004
1987
1951
1929
1925
1949
1984
2007
2027
2030
2007
1985
1957
1935
1942
1969
2018
2032
2003
1984
1978
1979
1968
1968
1981
2000
2030
2032
2031
2017
1995
1982
2000
2012
2007
1994
1981
1977
1968
1968
1971
1987
2016
2014
2001
2018
2032
2055
2071
2095
2107
2110
2099
2062
2029
2010
2015
2018
2015
1998
1980
1968
1939
1941
1963
1984
1991
2013
2025
2007
1999
1979
1953
1961
1983
1988
2000
1987
1959
1936
1956
1985
2023
2064
2087
2081
2067
2064
2076
2098
2123
2119
2107
2089
2095
2143
2199
2287
2389
2469
2498
2490
2436
2320
2184
2053
1939
1870
1802
1735
1659
1600
1605
1648
1691
1729
1767
1809
1838
1863
1907
1952
1983
2003
2017
2030
2014
1985
1941
1920
1930
1959
1993
2014
2017
2017
2002
2000
1997
1991
2001
2019
2005
2007
1995
1979
1988
2022
2035
2039
2055
2059
2039
2033
2037
2047
2077
2077
2078
2083
2087
2108
2122
2102
2071
2059
2079
2112
2173
2192
2196
2218
2253
2288
2302
2294
2269
2219
2192
2165
2157
2176
2199
2224
2219
2192
2160
2124
2127
2145
2171
2181
2173
2151
2102
2045
2020
2019
2045
2092
2122
2117
2077
2032
2007
2002
2007
2015
2023
2007
1975
1937
1913
1925
1963
1997
2007
2022
2017
1999
1973
1955
1939
1964
2001
2029
2026
2003
1981
1966
1968
1981
1979
1978
1970
1951
1920
1901
1909
1948
1985
2031
2039
2019
1994
1971
1953
1936
1951
1975
1982
1979
1974
1964
1939
1925
1936
1968
1985
1989
1978
1962
1935
1922
1927
1958
1983
1979
1963
1965
1953
1955
1962
1962
1943
1934
1899
1870
1865
1873
1895
1914
1950
1982
1987
1999
1980
1968
1965
1985
2020
2039
2071
2067
2047
2021
1999
1984
1988
2009
2028
2009
1985
1936
1911
1910
1913
1911
1929
1936
1921
1897
1875
1883
1901
1899
1917
1953
1958
1933
1909
1906
1931
1968
2013
2032
2031
2006
1989
1984
2000
2029
2065
2073
2069
2059
2071
2120
2188
2262
2347
2403
2420
2397
2352
2258
2144
2027
1952
1895
1835
1735
1641
1577
1534
1527
1580
1647
1712
1773
1803
1793
1792
1826
1897
1941
1968
1983
1981
1966
1942
1936
1937
1955
1971
1994
1984
1968
1932
1899
1895
1904
1923
1952
1977
1968
1949
1969
2003
2041
2080
2087
2081
2053
2032
2013
2000
2000
2018
2058
2085
2095
2081
2062
2071
2098
2128
2155
2160
2149
2131
2114
2108
2114
2131
2184
2233
2247
2240
2242
2235
2201
2187
2191
2187
2190
2179
2176
2162
2149
2143
2161
2195
2195
2192
2174
2139
2099
2083
2083
2102
2112
2096
2071
2039
2014
2000
2003
2007
2025
2026
2027
1996
1967
1936
1930
1936
1967
1991
2005
2003
1984
1955
1948
1947
1953
1974
1994
1983
1968
1931
1917
1941
1995
2032
2061
2047
2013
2000
1968
1957
1977
2000
2030
2035
2023
2006
1995
1973
1969
1984
1984
1975
1968
1959
1952
1950
1958
1996
2037
2070
2064
2032
1989
1945
1925
1948
1955
1969
1985
1975
1953
1936
1929
1951
1982
2005
2035
2034
2001
1958
1926
1922
1968
2032
2067
2073
2063
2032
1987
1970
1968
2000
2034
2032
2004
1990
1969
1955
1950
1959
1968
1963
1953
1927
1897
1873
1871
1876
1879
1904
1904
1899
1887
1879
1878
1894
1917
1941
1954
1945
1943
1938
1936
1941
1966
1984
2006
2039
2047
2027
2005
2022
2046
2080
2101
2135
2176
2237
2294
2351
2383
2389
2353
2267
2139
1981
1840
1712
1627
1589
1584
1600
1600
1604
1633
1664
1703
1755
1808
1845
1872
1891
1895
1901
1899
1906
1936
1965
1969
1955
1936
1922
1902
1895
1926
1968
1985
1975
1965
1952
1950
1938
1923
1931
1961
1995
2005
2005
2000
1997
2000
2007
2007
2007
2002
1995
1995
1998
2000
2017
2035
2071
2087
2083
2078
2079
2091
2102
2118
2149
2171
2176
2159
2160
2176
2176
2186
2208
2204
2175
2154
2129
2102
2096
2125
2151
2161
2158
2135
2112
2087
2069
2086
2106
2112
2096
2067
2042
2017
1993
1986
1988
1996
2000
1967
1937
1916
1905
1925
1936
1937
1941
1927
1907
1884
1863
1857
1855
1840
1872
1891
1905
1901
1889
1885
1910
1927
1947
1957
1942
1923
1904
1882
1902
1909
1926
1937
1951
1936
1913
1890
1884
1899
1925
1943
1936
1921
1914
1899
1875
1877
1897
1906
1915
1902
1865
1847
1834
1856
1904
1943
1966
1949
1904
1884
1858
1843
1850
1863
1875
1892
1891
1882
1859
1847
1851
1879
1917
1947
1967
1961
1941
1920
1906
1920
1949
1979
1968
1963
1938
1904
1894
1917
1921
1920
1904
1871
1840
1825
1808
1806
1807
1799
1807
1826
1840
1837
1813
1799
1795
1822
1857
1866
1855
1841
1844
1855
1870
1902
1923
1922
1898
1873
1856
1867
1869
1877
1905
1936
1962
1968
1981
2015
2067
2147
2207
2247
2235
2169
2075
1936
1830
1765
1722
1657
1565
1462
1408
1394
1413
1451
1520
1596
1650
1679
1695
1712
1728
1744
1762
1778
1794
1801
1793
1792
1781
1775
1783
1814
1842
1845
1829
1797
1777
1775
1781
1793
1807
1808
1791
1775
1770
1764
1761
1775
1797
1822
1824
1818
1812
1808
1794
1808
1855
1887
1895
1868
1846
1862
1878
1904
1931
1958
1959
1949
1927
1907
1900
1927
1951
1970
1994
1994
1968
1951
1936
1920
1931
1937
1936
1943
1937
1920
1890
1875
1893
1911
1915
1912
1894
1857
1821
1794
1771
1773
1803
1808
1815
1825
1824
1815
1793
1782
1773
1766
1755
1715
1674
1645
1645
1664
1683
1696
1692
1675
1646
1625
1632
1649
1664
1681
1683
1675
1665
1664
1661
1666
1687
1715
1745
1728
1685
1647
1613
1611
1636
1680
1712
1737
1751
1756
1744
1723
1702
1711
1717
1742
1742
1712
1671
1629
1619
1647
1680
1706
1707
1671
1651
1650
1663
1685
1707
1706
1694
1680
1663
1639
1621
1622
1651
1666
1671
1667
1664
1658
1648
1667
1712
1759
1786
1785
1767
1728
1680
1654
1652
1680
1726
1735
1717
1706
1698
1678
1642
1622
1615
1606
1584
1599
1600
1583
1570
1581
1597
1610
1622
1631
1616
1600
1599
1633
1681
1716
1729
1733
1725
1695
1681
1690
1712
1729
1744
1731
1711
1707
1732
1782
1867
1952
2028
2079
2098
2091
2031
1946
1842
1763
1680
1573
1472
1393
1327
1283
1276
1316
1379
1419
1430
1471
1521
1578
1622
1671
1710
1728
1737
1728
1700
1666
1650
1656
1680
1716
1739
1745
1740
1708
1681
1680
1690
1713
1763
1811
1824
1811
1789
1759
1749
1758
1774
1759
1749
1759
1767
1783
1808
1837
1834
1824
1827
1810
1792
1791
1796
1823
1863
1905
1923
1891
1887
1887
1897
1929
1967
1988
2000
1983
1963
1965
1962
1959
1970
1990
2002
2000
1984
1963
1936
1907
1901
1891
1887
1861
1846
1840
1849
1879
1899
1898
1882
1867
1840
1828
1792
1766
1762
1781
1814
1825
1820
1798
1776
1743
1740
1773
1808
1829
1819
1787
1744
1725
1723
1737
1755
1779
1792
1783
1785
1778
1767
1759
1773
1798
1814
1830
1819
1809
1805
1789
1797
1825
1847
1851
1824
1805
1794
1790
1797
1799
1808
1835
1841
1842
1828
1810
1813
1839
1856
1871
1888
1885
1870
1841
1818
1819
1829
1870
1897
1874
1839
1813
1811
1841
1878
1902
1888
1856
1846
1841
1840
1853
1881
1913
1937
1946
1934
1918
1904
1911
1918
1919
1909
1897
1883
1866
1845
1840
1840
1851
1873
1883
1875
1863
1847
1831
1843
1851
1857
1890
1915
1909
1903
1887
1867
1871
1887
1907
1922
1925
1921
1915
1919
1933
1950
1966
1946
1909
1893
1894
1906
1983
2115
2256
2351
2399
2409
2384
2342
2283
2192
2108
1997
1889
1770
1662
1597
1562
1561
1584
1626
1723
1777
1776
1784
1809
1835
1863
1909
1936
1936
1916
1907
1898
1901
1914
1936
1968
1984
1990
1984
1949
1920
1911
1946
1991
2023
2031
2030
2013
1998
2007
2023
2047
2075
2066
2032
2011
1999
1993
2000
2030
2062
2097
2126
2127
2097
2096
2097
2112
2141
2149
2125
2089
2054
2057
2096
2145
2192
2223
2219
2199
2188
2181
2176
2192
2209
2224
2213
2201
2181
2160
2135
2134
2146
2160
2161
2141
2130
2119
2123
2112
2115
2128
2155
2160
2139
2103
2064
2039
2031
2039
2058
2063
2033
2007
1984
1979
1999
2031
2061
2057
2042
2023
1986
1983
1995
2016
2030
2036
2041
2037
2032
2028
2034
2047
2047
2032
2053
2074
2061
2032
2045
2075
2094
2103
2096
2071
2033
2005
1995
2007
2031
2062
2069
2047
2018
2001
2029
2037
2071
2097
2100
2096
2079
2042
2029
2032
2039
2059
2080
2097
2099
2081
2062
2037
2017
2017
2038
2068
2077
2080
2087
2081
2065
2074
2094
2106
2125
2140
2151
2151
2161
2161
2150
2134
2110
2081
2043
1995
1956
1971
2014
2044
2064
2047
2013
1982
1955
1945
1966
2011
2039
2042
1998
1948
1952
1982
2018
2070
2114
2133
2128
2112
2096
2085
2086
2114
2154
2177
2159
2109
2081
2033
2046
2101
2173
2271
2338
2395
2419
2439
2459
2458
2447
2404
2322
2198
2059
1925
1811
1723
1666
1651
1663
1677
1727
1761
1818
1890
1952
1991
2026
2038
2031
2003
1989
1978
1973
1981
2006
2029
2032
2021
2003
2009
2025
2032
2034
2032
2021
2007
2006
1990
1995
2018
2082
2128
2154
2133
2099
2045
2019
2034
2090
2110
2112
2144
2140
2143
2129
2126
2148
2161
2160
2166
2178
2187
2176
2162
2160
2186
2223
2256
2277
2268
2250
2238
2227
2239
2250
2255
2239
2215
2191
2175
2176
2213
2253
2268
2239
2193
2160
2138
2134
2129
2131
2161
2183
2181
2157
2127
2093
2059
2062
2085
2096
2092
2067
2047
2043
2037
2023
2021
2019
2005
1987
1973
1957
1955
1962
1972
1985
1995
1997
1989
1983
1994
2002
2013
2035
2047
2044
2015
1986
1966
1959
1975
2000
2019
2037
2042
2038
2032
2029
2038
2046
2039
2031
2014
1983
1952
1936
1951
1973
1987
2009
2027
2007
1978
1953
1954
1947
1970
2000
2028
2007
1985
1970
1965
1971
1984
2002
2015
1999
1975
1970
1968
1971
1989
2010
2019
2018
1999
1986
1978
1974
2000
2032
2083
2097
2065
2026
2012
2013
2015
2022
2010
1985
1994
1996
1957
1920
1878
1861
1895
1937
1957
1967
1953
1945
1979
2005
2019
2016
2007
1979
1962
1939
1946
1969
2000
2026
2027
2015
2005
1994
1983
1982
1999
2037
2099
2142
2170
2211
2256
2310
2365
2420
2426
2381
2295
2165
2042
1936
1834
1735
1647
1584
1535
1535
1570
1605
1677
1770
1852
1886
1923
1918
1902
1871
1871
1910
1957
1993
2012
2014
2015
2005
1986
1970
1986
2000
1991
1986
1990
1968
1936
1920
1927
1929
1971
2004
2011
2023
2013
2015
2063
2083
2079
2077
2063
2035
2015
2000
2014
2036
2064
2086
2081
2081
2073
2067
2077
2096
2133
2160
2176
2186
2176
2150
2134
2161
2192
2224
2235
2224
2212
2210
2192
2193
2203
2217
2224
2202
2163
2118
2086
2094
2095
2122
2149
2160
2141
2095
2063
2045
2055
2057
2059
2043
2030
2031
2015
2012
1999
1989
1983
1981
1953
1931
1907
1891
1878
1889
1933
1994
2014
2010
1983
1951
1938
1933
1936
1937
1935
1917
1910
1901
1898
1922
1949
1985
2000
1981
1951
1922
1918
1936
1968
1988
1993
1989
1980
1967
1946
1937
1947
1971
1978
1979
1961
1945
1935
1934
1923
1926
1939
1950
1937
1922
1904
1901
1910
1926
1958
1973
1971
1963
1941
1921
1914
1925
1944
1961
1958
1950
1963
1962
1968
1988
1999
1958
1941
1968
1979
1975
1968
1961
1957
1954
1952
1947
1921
1883
1845
1821
1829
1843
1863
1870
1859
1847
1833
1827
1827
1843
1872
1919
1936
1926
1903
1878
1862
1885
1911
1926
1923
1927
1924
1932
1935
1926
1947
1979
2023
2085
2147
2205
2239
2258
2261
2247
2199
2114
1997
1862
1725
1621
1573
1535
1535
1558
1561
1586
1609
1647
1683
1739
1801
1857
1893
1911
1910
1898
1872
1872
1882
1895
1906
1899
1885
1871
1882
1902
1917
1921
1935
1920
1904
1898
1907
1935
1957
1967
1990
1990
1963
1925
1906
1924
1951
1983
2001
2007
1996
1998
2011
2032
2055
2064
2089
2092
2085
2078
2086
2096
2103
2099
2114
2130
2127
2109
2107
2135
2154
2189
2195
2175
2171
2172
2176
2170
2143
2105
2096
2106
2100
2081
2057
2031
2018
2039
2082
2100
2096
2065
2053
2037
2045
2063
2063
2057
2029
1994
1969
1949
1922
1904
1901
1908
1925
1926
1920
1908
1892
1895
1889
1903
1911
1907
1901
1877
1859
1870
1875
1903
1937
1965
1968
1949
1903
1866
1846
1859
1889
1911
1921
1925
1930
1923
1889
1897
1963
2017
2029
2006
1975
1951
1919
1915
1937
1969
1993
1978
1951
1919
1910
1921
1927
1954
1970
1965
1936
1905
1889
1886
1898
1929
1954
1968
1953
1937
1918
1903
1907
1929
1950
1959
1951
1943
1926
1920
1936
1957
1959
1963
1967
1955
1941
1936
1935
1955
1963
1958
1934
1933
1927
1927
1926
1920
1920
1911
1904
1882
1873
1857
1851
1863
1894
1919
1924
1918
1903
1904
1907
1908
1904
1904
1933
1959
1969
1958
1942
1926
1935
1982
2064
2153
2221
2273
2317
2320
2294
2257
2214
2133
2025
1909
1803
1700
1625
1597
1610
1631
1678
1717
1739
1761
1787
1834
1894
1953
1984
1983
1959
1927
1902
1904
1925
1945
1964
1968
1955
1942
1921
1922
1953
1973
2009
2031
2010
1981
1947
1935
1951
1991
2030
2047
2047
2011
1982
1993
2011
2022
2027
2033
2035
2029
2015
2001
2015
2035
2063
2097
2118
2128
2124
2123
2112
2119
2141
2154
2160
2171
2159
2142
2117
2112
2158
2223
2248
2229
2190
2158
2128
2120
2121
2120
2145
2159
2135
2114
2099
2066
2060
2071
2095
2080
2047
2010
1991
1994
2006
2005
2009
2032
2030
2000
1967
1946
1941
1968
1974
1962
1949
1938
1922
1920
1946
1968
1989
2015
2021
2015
1985
1957
1943
1941
1963
1983
2004
2004
2001
1987
1977
1968
1975
2000
2000
2013
2010
1991
1985
1999
2020
2043
2055
2035
2016
2000
1973
1941
1952
1968
2000
2031
2043
2043
2036
2027
2015
2005
2012
2025
2033
2033
2007
1983
1969
1979
1984
1997
2005
2003
2011
2017
2015
2002
2015
2071
2097
2111
2103
2082
2058
2063
2058
2035
2035
2045
2047
2037
2009
1989
1994
2000
2001
1993
1997
2003
2004
1985
1971
1962
1967
1975
1976
1975
1969
1961
1957
1971
1995
2029
2047
2059
2036
2017
1999
1993
2015
2017
2015
2019
2030
2047
2075
2106
2130
2157
2182
2194
2166
2103
1995
1939
1889
1841
1806
1759
1723
1710
1695
1702
1727
1773
1821
1862
1902
1930
1936
1929
1923
1927
1929
1954
1998
2018
2011
1991
1970
1969
1985
1991
2002
2010
2003
2015
2034
2032
2033
2037
2034
2039
2038
2027
2016
2025
2027
2037
2047
2064
2054
2032
2022
2032
2059
2079
2090
2101
2126
2135
2125
2101
2091
2122
2149
2172
2186
2171
2163
2145
2150
2151
2172
2176
2179
2170
2163
2181
2192
2192
2189
2193
2198
2187
2176
2176
2176
2165
2146
2131
2139
2145
2127
2103
2074
2055
2041
2035
2035
2032
2031
2026
2007
1984
1983
1991
1995
1999
2001
2003
1993
1973
1967
1968
1995
2029
2031
2006
1965
1917
1922
1965
1999
2011
2012
2010
1996
1991
2013
2037
2047
2047
2068
2069
2063
2030
2004
1990
1994
2005
2011
2005
1984
1968
1966
1954
1959
1979
1999
2007
2006
1991
1983
1984
1983
2000
2027
2031
2011
2011
2010
2013
2017
2022
2019
2037
2042
2053
2045
2023
2020
2053
2073
2103
2112
2096
2064
2032
2021
2032
2035
2025
2011
1996
1978
1957
1935
1915
1915
1939
1962
1955
1937
1939
1951
1955
1968
1989
1982
1966
1951
1936
1925
1930
1937
1945
1964
1974
1977
1973
1968
1962
1969
1999
2027
2028
2001
1969
1960
1968
2021
2121
2217
2304
2333
2311
2285
2222
2127
2014
1918
1827
1751
1679
1639
1584
1558
1584
1637
1711
1787
1849
1888
1891
1882
1866
1873
1915
1947
1967
1956
1942
1939
1929
1914
1914
1921
1942
1978
1983
1981
1980
1973
1962
1968
1984
1985
1977
1968
1954
1979
2003
2032
2062
2047
2019
1976
1963
1973
1997
2027
2043
2045
2038
2019
2025
2023
2038
2064
2079
2117
2131
2119
2109
2093
2082
2096
2110
2129
2147
2143
2154
2153
2144
2135
2133
2129
2128
2128
2112
2095
2067
2047
2037
2041
2068
2069
2032
2003
2006
2020
2035
2037
2023
2000
1985
1968
1958
1939
1933
1921
1920
1925
1929
1919
1904
1885
1866
1859
1872
1877
1876
1873
1860
1855
1869
1887
1907
1927
1919
1908
1872
1853
1846
1856
1860
1870
1885
1905
1903
1886
1872
1865
1872
1894
1906
1910
1899
1882
1866
1825
1815
1883
1919
1943
1935
1893
1850
1839
1842
1843
1855
1882
1904
1903
1904
1889
1871
1854
1861
1894
1915
1927
1921
1903
1885
1877
1893
1902
1906
1898
1885
1883
1894
1904
1915
1904
1902
1881
1847
1815
1823
1845
1865
1857
1834
1840
1862
1870
1856
1821
1814
1836
1859
1878
1887
1878
1867
1841
1819
1822
1841
1866
1870
1863
1887
1891
1895
1904
1913
1909
1902
1903
1936
1977
2043
2128
2209
2271
2283
2263
2208
2126
2022
1935
1837
1749
1690
1630
1554
1533
1573
1616
1651
1685
1712
1725
1741
1776
1810
1844
1882
1923
1953
1961
1946
1930
1919
1920
1951
1981
1991
1999
2000
1985
1963
1943
1943
1973
2000
2011
2006
1998
1987
1983
1981
2015
2036
2054
2042
2037
2025
2015
2002
2027
2061
2090
2101
2096
2073
2073
2083
2096
2128
2157
2160
2163
2161
2155
2150
2145
2166
2191
2206
2216
2224
2214
2190
2173
2165
2171
2189
2192
2187
2157
2135
2132
2132
2128
2134
2145
2138
2100
2062
2055
2062
2068
2066
2083
2099
2095
2071
2060
2042
2042
2042
2065
2075
2068
2064
2035
2019
2013
1999
1989
1982
1963
1938
1917
1913
1921
1937
1961
1971
1989
1984
1971
1951
1920
1919
1936
1959
1971
1984
1998
2000
1988
1973
1985
1999
2007
2005
1989
1968
1962
1972
2002
2023
2039
2037
2032
2022
2002
1985
1975
1981
1983
2000
2009
2005
1977
1968
1980
1990
2000
2011
2007
1987
1974
1971
1982
2000
2021
2038
2047
2042
2018
1995
2000
2030
2054
2047
2031
1995
1951
1911
1891
1891
1908
1936
1954
1969
1943
1918
1917
1916
1939
1970
1982
1978
1968
1968
1949
1926
1931
1941
1951
1962
1966
1955
1937
1945
1954
1962
1958
1954
1959
1949
1964
2010
2081
2142
2233
2298
2325
2319
2266
2192
2097
1994
1905
1808
1730
1649
1609
1584
1593
1631
1680
1712
1751
1793
1826
1847
1857
1861
1878
1904
1920
1934
1940
1939
1918
1908
1908
1931
1937
1952
1949
1933
1920
1920
1930
1937
1945
1966
1974
1969
1971
1968
1959
1957
1987
2020
2037
2059
2054
2036
2015
2023
2047
2079
2098
2103
2091
2073
2053
2042
2067
2096
2114
2127
2122
2123
2116
2098
2107
2128
2176
2203
2195
2192
2190
2175
2162
2160
2172
2177
2165
2130
2083
2062
2054
2074
2081
2096
2123
2128
2112
2087
2075
2064
2062
2039
2043
2059
2058
2021
1989
1979
1981
1989
2001
2017
2011
1984
1942
1931
1938
1937
1943
1953
1945
1933
1907
1883
1886
1889
1911
1936
1946
1929
1917
1932
1942
1949
1948
1951
1957
1967
1970
1991
2000
1997
1989
2006
2011
1997
1962
1925
1924
1927
1939
1941
1930
1927
1943
1977
1985
1986
1998
2000
1991
1982
1953
1922
1911
1910
1928
1963
1985
1996
1986
1971
1952
1945
1955
1957
1945
1955
1997
1995
1987
2001
2015
2022
2011
2006
2007
2001
1989
1971
1963
1959
1938
1946
1951
1945
1943
1939
1913
1879
1889
1906
1915
1887
1872
1874
1879
1867
1872
1895
1923
1938
1951
1934
1919
1910
1906
1923
1931
1922
1922
1919
1908
1923
1951
1984
2039
2112
2161
2186
2193
2207
2219
2213
2192
2113
1999
1871
1747
1628
1568
1535
1520
1563
1611
1651
1689
1731
1769
1793
1824
1856
1886
1904
1905
1902
1899
1904
1931
1963
1982
1993
2001
1980
1959
1950
1943
1930
1914
1911
1922
1947
1968
1977
1977
1982
2000
2032
2031
2033
2018
2029
2032
2047
2063
2082
2074
2062
2047
2055
2056
2059
2065
2091
2097
2095
2081
2069
2069
2091
2128
2175
2207
2214
2211
2207
2194
2191
2186
2177
2166
2160
2163
2155
2148
2153
2160
2156
2159
2157
2135
2118
2085
2069
2061
2073
2079
2071
2047
2034
2010
1995
2011
2027
2039
2063
2075
2062
2045
2014
1974
1950
1922
1920
1923
1927
1925
1920
1919
1927
1951
1984
2013
2014
2000
1979
1950
1935
1936
1939
1934
1935
1935
1923
1926
1933
1950
1971
1998
2002
1983
1975
1951
1938
1945
1962
1975
1986
1994
1999
1994
1998
2000
1989
1981
1994
2022
2032
2030
2012
1994
1981
1967
1945
1958
1963
1968
1963
1959
1954
1965
1968
1968
1967
1952
1948
1952
1967
1983
2002
2021
2031
2015
1986
1977
1970
1978
1983
1983
1979
1958
1953
1957
1973
1973
1984
1973
1970
1961
1953
1923
1905
1903
1900
1900
1913
1934
1936
1920
1899
1875
1887
1932
1963
1981
1968
1946
1918
1904
1923
1966
2002
2019
2006
1991
1995
1999
1970
1959
1969
1997
2031
2073
2147
2218
2247
2256
2269
2267
2227
2164
2091
1970
1871
1782
1706
1646
1589
1555
1558
1575
1600
1650
1707
1762
1790
1818
1850
1870
1877
1891
1886
1895
1910
1934
1947
1978
1994
2002
2004
1997
1991
1998
1983
1968
1969
1968
1977
1989
2002
2011
2013
1999
1999
1994
2003
2019
2030
2032
2032
2033
2027
2021
2013
2009
1999
2018
2038
2047
2064
2075
2075
2078
2108
2129
2160
2171
2165
2173
2190
2183
2183
2198
2209
2203
2189
2170
2161
2160
2176
2191
2209
2225
2224
2202
2170
2147
2111
2095
2127
2170
2176
2147
2107
2059
2015
1998
2000
2014
2032
2032
2032
2009
1974
1968
1967
1963
1975
1977
1968
1962
1951
1961
1959
1965
1973
1969
1958
1942
1925
1904
1922
1943
1951
1977
1973
1986
2000
1985
1990
1997
2014
2011
1990
1964
1952
1951
1965
1973
1987
1998
1983
1968
1970
1970
1980
1999
2015
2015
2007
1990
1969
1951
1938
1943
1959
1982
2003
1995
1961
1935
1929
1936
1941
1975
2012
2027
2019
1997
1968
1943
1933
1954
1995
2003
1990
1952
1919
1914
1919
1921
1934
1943
1968
1971
1972
1993
2022
2039
2064
2059
2064
2059
2032
2006
1984
1966
1965
1983
1994
1982
1968
1965
1963
1965
1964
1973
1990
1979
1942
1920
1909
1915
1915
1922
1935
1941
1929
1913
1901
1909
1922
1939
1975
2010
2019
2010
1999
1981
1979
1983
1996
2002
2009
2022
2069
2115
2173
2233
2285
2325
2331
2303
2240
2162
2043
1917
1811
1726
1669
1635
1606
1598
1606
1645
1685
1741
1794
1828
1851
1877
1895
1900
1920
1954
1983
1979
1934
1889
1876
1895
1930
1959
1967
1959
1968
1979
1971
1947
1931
1926
1949
1969
1968
1977
1970
1955
1936
1951
1974
1986
1977
1968
1987
2005
2018
2025
2029
2023
2017
2014
2008
1990
1981
1995
2014
2047
2089
2097
2086
2073
2062
2071
2084
2118
2137
2135
2131
2131
2153
2151
2154
2143
2125
2103
2106
2112
2106
2096
2080
2079
2087
2088
2064
2025
2000
1983
1975
1995
2026
2047
2047
2018
1978
1942
1916
1915
1921
1942
1953
1939
1926
1923
1917
1914
1927
1935
1951
1937
1904
1892
1900
1906
1933
1947
1947
1970
1984
1958
1942
1927
1920
1936
1962
1971
1962
1942
1924
1919
1923
1936
1971
2000
2002
1991
1981
1968
1950
1936
1936
1951
1967
1956
1941
1945
1936
1936
1962
1969
1978
1984
1973
1968
1957
1939
1936
1936
1939
1953
1951
1951
1941
1938
1954
1962
1969
1970
1954
1957
1977
1978
1971
1968
1972
1964
1937
1922
1911
1909
1916
1933
1953
1960
1968
1959
1943
1951
1961
1962
1964
1967
1969
1975
1983
1977
1971
1975
2002
2014
2020
2018
2009
1989
1948
1918
1919
1921
1923
1923
1933
1930
1920
1923
1934
1938
1943
1927
1919
1907
1885
1882
1897
1922
1939
1969
1977
1979
1988
1996
2007
2035
2069
2085
2066
2017
1974
1999
2096
2195
2288
2367
2418
2438
2426
2379
2303
2192
2074
1975
1885
1806
1711
1648
1603
1600
1641
1679
1726
1749
1746
1757
1792
1836
1871
1908
1936
1966
1965
1936
1931
1929
1934
1946
1955
1991
2004
2000
1969
1968
2007
2053
2080
2090
2084
2075
2037
2001
1997
2030
2062
2071
2081
2080
2069
2079
2079
2079
2083
2097
2109
2117
2112
2096
2072
2064
2089
2122
2134
2133
2131
2141
2150
2162
2176
2191
2202
2231
2234
2211
2206
2233
2240
2269
2303
2306
2281
2250
2235
2224
2209
2204
2192
2188
2191
2199
2192
2175
2159
2155
2140
2151
2157
2140
2126
2107
2091
2071
2064
2063
2070
2055
2036
2004
1984
1987
2013
2017
2014
2015
2000
1968
1949
1942
1956
1971
1994
2005
2022
2030
2014
2007
2000
2000
2019
2016
1985
1955
1969
1982
1981
1991
2022
2058
2069
2070
2045
2000
1979
1986
2043
2079
2077
2035
2005
2011
2032
2009
1998
2010
2031
2033
2019
1994
1974
1967
1973
1990
2000
1994
1968
1935
1906
1904
1937
1978
1993
1975
1937
1919
1905
1891
1886
1926
1979
2006
2014
2007
1984
1953
1939
1940
1947
1953
1970
1966
1968
1949
1921
1904
1937
1999
2032
2032
2010
1999
1985
2001
2032
2069
2090
2086
2065
2030
1997
1971
1963
1966
1966
1946
1905
1891
1911
1934
1950
1965
1981
1975
1968
1945
1930
1920
1921
1933
1963
1981
1979
1949
1921
1932
1947
1985
2019
2034
2037
2029
2015
2001
2007
2009
2010
2017
2055
2111
2170
2235
2306
2358
2383
2412
2416
2372
2288
2146
1990
1852
1738
1674
1626
1590
1556
1535
1535
1578
1648
1727
1787
1835
1866
1875
1886
1894
1911
1937
1954
1946
1942
1940
1937
1947
1953
1946
1951
1977
1974
1935
1898
1894
1907
1920
1919
1920
1905
1893
1910
1946
1975
1986
1997
2000
2011
1999
1975
1981
1984
1984
1991
2020
2045
2043
2033
2043
2030
2020
2032
2064
2089
2109
2119
2112
2101
2101
2102
2112
2115
2136
2150
2138
2135
2129
2141
2133
2138
2144
2153
2141
2112
2095
2071
2064
2059
2064
2065
2042
2032
2031
2031
2030
2023
2041
2069
2080
2061
2029
2000
1969
1955
1958
1950
1950
1943
1936
1927
1930
1936
1946
1955
1936
1920
1911
1904
1888
1892
1902
1906
1905
1897
1895
1888
1885
1888
1883
1879
1887
1897
1906
1927
1926
1923
1943
1963
1978
1985
1965
1936
1941
1958
1958
1963
1977
1996
2003
1989
1957
1921
1905
1909
1919
1934
1936
1921
1889
1867
1859
1863
1887
1917
1925
1917
1899
1883
1855
1844
1846
1859
1876
1872
1850
1840
1849
1847
1862
1877
1895
1911
1910
1877
1840
1854
1894
1925
1938
1935
1907
1890
1875
1889
1905
1927
1935
1936
1932
1920
1920
1930
1931
1936
1947
1951
1937
1902
1867
1856
1850
1860
1867
1872
1878
1869
1841
1812
1807
1814
1838
1861
1871
1869
1859
1847
1823
1820
1837
1872
1906
1938
1957
1959
1956
1967
1994
2021
2039
2047
2045
2030
1984
1950
1955
2010
2102
2192
2263
2310
2342
2339
2291
2229
2160
2075
1959
1821
1712
1621
1554
1505
1488
1501
1507
1520
1563
1612
1663
1712
1758
1806
1835
1840
1839
1834
1829
1830
1836
1840
1859
1872
1885
1889
1872
1867
1879
1894
1904
1920
1929
1936
1935
1938
1950
1961
1970
1981
1971
1947
1931
1914
1899
1890
1882
1905
1920
1926
1935
1931
1936
1959
1984
2015
2043
2068
2065
2038
2026
2035
2053
2094
2111
2098
2101
2109
2104
2096
2096
2103
2112
2118
2128
2122
2098
2076
2091
2109
2129
2151
2155
2123
2085
2065
2053
2034
2046
2047
2026
2022
2021
2018
2029
2038
2032
2025
2001
1962
1923
1899
1872
1887
1914
1936
1937
1916
1894
1877
1871
1868
1867
1879
1888
1899
1893
1872
1850
1863
1886
1891
1886
1899
1909
1909
1898
1889
1880
1869
1855
1862
1882
1889
1884
1877
1898
1949
1989
1995
1981
1947
1917
1906
1902
1904
1936
1953
1950
1936
1931
1923
1904
1899
1907
1922
1934
1936
1921
1898
1883
1881
1888
1889
1885
1886
1885
1890
1874
1833
1840
1840
1849
1869
1886
1899
1885
1874
1857
1847
1847
1851
1855
1843
1821
1808
1840
1872
1895
1915
1932
1928
1921
1926
1930
1937
1943
1945
1946
1950
1937
1920
1904
1890
1885
1875
1872
1841
1822
1793
1787
1802
1833
1853
1853
1827
1825
1837
1825
1813
1821
1824
1820
1802
1792
1811
1833
1861
1899
1936
1984
2003
1995
1979
1958
1954
1951
1951
1958
1979
2017
2065
2102
2139
2189
2246
2281
2278
2247
2188
2087
1950
1817
1699
1597
1515
1456
1414
1411
1442
1457
1482
1527
1600
1671
1711
1715
1715
1740
1769
1790
1815
1854
1877
1902
1917
1907
1893
1875
1891
1929
1937
1919
1903
1886
1873
1869
1866
1878
1886
1897
1885
1873
1862
1863
1867
1863
1859
1863
1875
1899
1895
1889
1891
1897
1904
1935
1966
1965
1959
1948
1950
1969
2000
2013
2000
1993
2003
2037
2078
2112
2133
2145
2149
2143
2128
2115
2110
2105
2113
2107
2086
2070
2064
2062
2060
2064
2064
2061
2069
2071
2063
2037
2012
1991
1982
1984
2003
2013
2009
1994
1970
1961
1947
1935
1936
1945
1947
1927
1891
1855
1840
1860
1878
1903
1907
1902
1893
1889
1888
1898
1922
1933
1933
1926
1911
1895
1887
1886
1904
1930
1933
1925
1916
1904
1883
1872
1872
1883
1931
1991
2018
2010
1974
1936
1930
1937
1951
1953
1936
1914
1891
1885
1895
1912
1943
1971
1959
1935
1925
1935
1926
1937
1959
1968
1968
1967
1954
1936
1925
1931
1934
1941
1941
1936
1925
1904
1894
1891
1894
1904
1913
1926
1933
1929
1923
1925
1927
1936
1958
1966
1965
1974
1989
2003
1998
1985
1975
1984
1968
1911
1885
1873
1869
1867
1879
1887
1899
1907
1913
1911
1910
1925
1927
1934
1969
1979
1957
1936
1920
1921
1931
1937
1922
1924
1930
1936
1946
1964
1978
2011
2054
2055
2032
2017
2023
2058
2128
2223
2299
2368
2414
2429
2416
2359
2278
2163
2042
1922
1813
1697
1599
1535
1531
1535
1585
1646
1703
1740
1747
1787
1826
1876
1904
1915
1921
1916
1904
1899
1903
1904
1921
1939
1959
1970
1975
1968
1969
1970
1971
1975
1971
1967
1951
1936
1925
1933
1965
1991
2010
2006
2006
2002
1983
1965
1975
2011
2037
2057
2073
2064
2064
2064
2059
2057
2064
2103
2131
2155
2148
2131
2135
2138
2144
2171
2183
2179
2161
2157
2161
2172
2183
2194
2193
2198
2192
2171
2160
2160
2163
2176
2183
2170
2142
2112
2081
2094
2117
2123
2121
2123
2123
2089
2039
2017
2017
2018
2014
2019
2006
1984
1949
1941
1965
1986
1999
1999
1984
1970
1949
1936
1935
1936
1946
1936
1949
1935
1920
1927
1936
1946
1958
1984
1986
1968
1937
1927
1939
1967
1971
1990
2025
2041
2046
2038
2031
2030
2017
2017
2032
2042
2029
1999
1981
1984
1999
2007
2000
1995
1987
1984
1982
1977
1984
1999
2011
2007
2003
2003
1995
1985
2005
2017
2027
2031
2034
2014
2005
1999
1975
1963
1970
1982
1979
1967
1951
1943
1963
2000
2031
2059
2073
2096
2096
2064
2047
2062
2086
2080
2074
2067
2044
2027
2015
2011
2019
2019
2015
2013
2007
1990
1988
1973
1960
1961
1950
1943
1945
1949
1941
1936
1941
1941
1953
1961
1950
1943
1931
1955
1985
2003
2014
2030
2033
2038
2042
2038
2041
2032
2027
2064
2123
2186
2233
2288
2351
2421
2481
2519
2522
2466
2338
2160
1974
1830
1730
1659
1628
1614
1616
1638
1661
1692
1738
1791
1837
1858
1872
1877
1877
1867
1867
1875
1904
1946
1975
1975
1966
1961
1963
1977
1999
2015
2003
1977
1965
1968
1963
1968
1984
2009
2031
2033
2026
2022
2011
2001
2000
2006
2027
2026
2015
1989
1968
1971
1991
2023
2041
2064
2069
2058
2047
2064
2083
2101
2111
2123
2127
2129
2124
2117
2117
2135
2161
2190
2211
2211
2194
2197
2219
2229
2235
2230
2231
2215
2185
2159
2112
2095
2079
2082
2096
2105
2095
2064
2032
2028
2034
2063
2073
2081
2063
2043
2025
1991
1984
1991
2000
1999
1973
1962
1946
1930
1936
1937
1947
1968
1972
1968
1962
1955
1965
1958
1953
1963
1999
2015
2015
1990
1975
1959
1957
1959
1969
1967
1936
1931
1947
1983
1984
1983
1985
1982
1966
1943
1946
1951
1968
1983
2000
2000
2001
1991
1971
1941
1937
1964
1997
2002
1990
1984
1983
1955
1936
1950
1969
1991
2009
2003
1978
1966
1965
1957
1963
1989
2000
1966
1921
1904
1905
1916
1919
1941
1969
1973
1982
1983
1985
1990
1985
1986
1995
1979
1973
1963
1966
1985
1997
2027
2039
2034
2011
1979
1943
1917
1898
1891
1904
1907
1926
1925
1903
1891
1910
1942
1968
1966
1962
1948
1926
1910
1906
1921
1934
1956
1986
1984
1979
1991
2017
2046
2079
2101
2104
2079
2053
2053
2095
2160
2243
2324
2384
2437
2459
2425
2352
2261
2151
2027
1906
1792
1702
1634
1590
1571
1575
1598
1623
1679
1718
1742
1776
1822
1874
1917
1943
1961
1954
1943
1938
1920
1910
1929
1946
1958
1974
1986
1979
1968
1966
1975
2001
2017
2031
2009
1975
1950
1955
1968
1974
2000
2019
2025
2032
2031
2021
2021
2026
2031
2042
2070
2073
2055
2055
2041
2062
2101
2128
2143
2134
2114
2096
2070
2079
2133
2197
2243
2252
2250
2243
2242
2240
2225
2221
2219
2211
2199
2191
2180
2185
2174
2166
2173
2166
2166
2160
2149
2136
2124
2104
2096
2096
2095
2079
2066
2058
2033
2032
2037
2059
2036
2031
2001
1984
1971
1981
1979
2000
2010
2016
2018
1991
1965
1951
1940
1968
1997
2021
2015
2011
2003
2032
2039
2035
2047
2047
2043
2017
1994
1985
1988
2007
2019
2033
2031
2013
1991
1986
1984
2010
2026
2032
2027
2015
2005
2002
1991
1997
2017
2022
2001
1972
1969
1969
1971
1987
2017
2021
2018
2017
2023
2030
2043
2060
2063
2047
2037
2024
2006
1991
1968
1953
1954
1963
1999
2002
1983
1970
1967
1968
1979
2000
2019
2041
2047
2065
2063
2061
2066
2067
2059
2043
2017
2005
1975
1943
1933
1936
1963
1984
1987
1968
1943
1957
1968
1986
1993
1991
1983
1974
1968
1968
1971
1970
1983
2003
2014
2008
2005
1987
1965
1979
2002
2061
2094
2106
2085
2045
2045
2085
2141
2223
2293
2368
2417
2448
2455
2443
2381
2304
2191
2065
1935
1815
1734
1671
1633
1625
1637
1654
1674
1695
1703
1724
1757
1808
1862
1918
1954
1969
1971
1958
1951
1958
1957
1957
1967
1967
1987
2001
2005
2000
1981
1974
1987
1998
2007
1990
1981
1989
1999
2000
2016
2032
2021
2001
1991
1974
1966
1973
2011
2031
2034
2041
2033
2036
2041
2053
2069
2103
2127
2128
2126
2119
2133
2155
2160
2165
2182
2186
2187
2179
2187
2192
2207
2237
2255
2256
2240
2218
2198
2201
2205
2211
2219
2207
2191
2163
2135
2135
2137
2128
2131
2151
2150
2128
2102
2067
2042
2045
2052
2039
2026
2009
1994
1978
1981
1983
1988
1999
2000
1990
1982
1973
1968
1967
1971
1968
1974
1958
1931
1911
1919
1937
1973
2003
2032
2041
2035
2017
2005
2005
2000
1999
2015
2041
2061
2045
2023
1993
1979
1995
2019
2067
2081
2075
2057
2029
1999
2000
2022
2034
2029
2010
2000
1982
1963
1972
1999
2024
2019
1981
1961
1965
1967
1971
1979
1997
2002
1991
1972
1962
1961
1968
1979
1999
2002
2000
1997
1985
1971
1983
2003
2017
2034
2081
2107
2108
2078
2034
2015
2003
2010
2006
2006
2025
2025
1987
1949
1920
1921
1932
1933
1930
1923
1906
1900
1909
1943
1972
1978
1961
1936
1919
1915
1929
1951
1979
1999
1996
1987
1965
1949
1961
1999
2014
2038
2035
2017
2017
2039
2118
2206
2286
2352
2398
2415
2397
2369
2323
2265
2176
2073
1967
1843
1740
1662
1614
1587
1587
1600
1645
1702
1744
1767
1797
1814
1840
1872
1889
1904
1917
1913
1925
1931
1931
1934
1933
1937
1936
1932
1908
1899
1897
1913
1943
1975
1979
1988
1970
1962
1965
1974
1997
2001
1991
1965
1957
1950
1947
1951
1968
1994
2022
2039
2037
2023
2006
2009
2025
2038
2037
2035
2047
2073
2089
2107
2121
2160
2191
2194
2165
2134
2141
2163
2180
2192
2211
2214
2204
2189
2162
2140
2128
2125
2127
2133
2127
2109
2101
2083
2078
2077
2090
2102
2096
2074
2039
2005
1993
1993
1985
1970
1968
1969
1963
1931
1914
1920
1943
1965
1978
1987
1969
1948
1936
1941
1958
1939
1922
1922
1943
1946
1943
1964
1978
1995
1996
1983
1967
1968
1971
1986
1998
2002
2001
1998
1984
1980
1967
1939
1931
1943
1979
1998
2019
2032
2026
2016
2016
2001
2007
2009
2007
2005
2000
1989
1981
1978
1985
2012
2021
2013
1997
1972
1951
1955
1968
1991
2011
2012
2005
1993
1975
1956
1950
1951
1964
1981
1988
1984
1968
1943
1963
2013
2064
2102
2112
2095
2064
2059
2025
2014
2033
2075
2095
2064
2028
1995
1968
1938
1929
1925
1927
1941
1935
1920
1911
1908
1919
1934
1936
1938
1945
1937
1919
1918
1925
1950
1969
1989
1983
1990
2032
2039
2059
2096
2128
2133
2111
2077
2062
2075
2127
2192
2280
2365
2403
2418
2422
2384
2319
2226
2112
1997
1898
1799
1695
1616
1582
1585
1616
1665
1712
1744
1766
1773
1773
1777
1809
1872
1947
1984
1986
1982
1968
1962
1965
1959
1957
1971
1975
1951
1923
1925
1949
1967
1971
1975
1993
2000
1997
1998
2001
1997
1997
1999
2006
2016
2001
1989
1998
2000
2014
2030
2032
2029
2017
2015
2017
2030
2064
2112
2150
2151
2131
2117
2112
2118
2131
2143
2191
2193
2176
2154
2135
2139
2150
2176
2192
2171
2173
2177
2156
2113
2108
2140
2160
2154
2127
2096
2066
2039
2017
2027
2054
2077
2071
2064
2031
2015
2007
2004
2017
2018
