3299
3310
3349
3411
3463
3494
3515
3518
3520
3511
3509
3523
3546
3566
3555
3559
3542
3509
3499
3518
3533
3514
3484
3440
3414
3355
3341
3344
3376
3397
3399
3390
3363
3334
3303
3297
3315
3363
3373
3357
3317
3298
3295
3312
3328
3355
3366
3335
3281
3254
3216
3216
3227
3249
3266
3282
3287
3283
3280
3293
3305
3303
3310
3314
3312
3265
3209
3163
3136
3146
3167
3185
3187
3157
3123
3111
3119
3131
3136
3141
3143
3136
3120
3108
3095
3088
3091
3098
3109
3101
3071
3041
2999
2956
2922
2909
2923
2933
2927
2893
2857
2830
2854
2889
2913
2912
2898
2883
2861
2827
2837
2859
2867
2863
2851
2813
2770
2749
2742
2747
2759
2766
2736
2704
2672
2650
2637
2652
2715
2796
2866
2927
2967
2971
2942
2891
2821
2736
2649
2553
2453
2351
2275
2234
2230
2261
2301
2354
2381
2406
2437
2479
2517
2549
2559
2578
2559
2539
2512
2499
2511
2528
2555
2559
2559
2547
2526
2512
2502
2503
2513
2528
2539
2525
2510
2512
2499
2512
2526
2539
2539
2529
2515
2507
2497
2494
2503
2519
2530
2517
2493
2466
2469
2492
2527
2559
2608
2635
2653
2640
2610
2583
2559
2559
2549
2538
2503
2461
2445
2419
2416
2431
2443
2443
2453
2449
2447
2431
2421
2420
2417
2415
2405
2383
2355
2326
2298
2287
2292
2299
2288
2261
2230
2203
2179
2162
2170
2179
2192
2179
2177
2165
2163
2160
2175
2192
2211
2215
2207
2193
2195
2202
2225
2239
2214
2167
2128
2117
2096
2068
2064
2085
2119
2144
2151
2130
2109
2077
2069
2078
2101
2118
2112
2107
2101
2091
2091
2112
2130
2147
2142
2128
2111
2087
2064
2064
2062
2064
2039
2027
1994
1967
1935
1925
1933
1951
1968
1967
1941
1929
1923
1906
1902
1894
1907
1932
1931
1905
1878
1859
1854
1863
1863
1872
1872
1859
1851
1834
1828
1828
1838
1837
1839
1867
1900
1954
2030
2110
2179
2225
2224
2165
2058
1920
1791
1665
1578
1499
1455
1415
1398
1421
1455
1479
1522
1560
1597
1623
1642
1648
1650
1667
1678
1682
1695
1709
1710
1686
1663
1647
1643
1646
1655
1680
1683
1680
1664
1634
1642
1663
1674
1680
1661
1653
1630
1616
1618
1629
1664
1680
1695
1687
1680
1679
1677
1680
1689
1710
1719
1728
1743
1749
1751
1749
1762
1775
1777
1770
1757
1738
1727
1715
1711
1718
1717
1727
1727
1718
1701
1680
1669
1675
1666
1680
1683
1673
1653
1629
1615
1614
1610
1600
1577
1534
1507
1505
1509
1508
1507
1503
1514
1509
1490
1472
1471
1472
1472
1473
1490
1497
1497
1484
1479
1490
1505
1515
1517
1503
1489
1483
1484
1490
1508
1521
1529
1523
1523
1505
1479
1458
1463
1470
1472
1498
1516
1509
1514
1521
1531
1535
1552
1535
1555
1582
1589
1590
1580
1577
1597
1600
1593
1578
1535
1503
1472
1441
1433
1441
1441
1464
1481
1469
1456
1425
1426
1436
1456
1470
1471
1470
1473
1473
1486
1499
1517
1520
1520
1514
1506
1492
1489
1494
1519
1529
1519
1485
1471
1485
1535
1663
1818
1962
2097
2181
2227
2242
2223
2161
2047
1906
1765
1617
1485
1383
1302
1241
1230
1254
1295
1342
1379
1408
1442
1470
1481
1501
1522
1531
1527
1518
1504
1498
1511
1535
1574
1586
1585
1583
1583
1600
1621
1639
1658
1666
1664
1661
1648
1649
1661
1691
1725
1757
1760
1751
1741
1725
1710
1729
1759
1786
1802
1810
1807
1805
1793
1792
1805
1835
1878
1919
1936
1916
1901
1885
1887
1918
1947
1962
1953
1941
1933
1906
1907
1936
1965
1979
1982
1968
1941
1921
1899
1911
1941
1956
1949
1927
1901
1873
1845
1837
1843
1846
1846
1846
1846
1844
1849
1853
1855
1869
1882
1891
1889
1883
1870
1855
1858
1859
1877
1901
1906
1903
1885
1867
1869
1872
1883
1879
1858
1855
1844
1821
1798
1807
1829
1853
1856
1843
1814
1808
1823
1841
1858
1883
1878
1871
1857
1867
1871
1885
1901
1920
1938
1942
1957
1972
1975
1981
1978
1973
1971
1962
1946
1915
1872
1841
1833
1849
1861
1872
1856
1837
1840
1861
1879
1908
1925
1953
1979
1986
1969
1924
1891
1882
1903
1930
1968
1995
2002
2000
1994
2003
2005
2007
2000
2000
2030
2100
2194
2320
2450
2579
2677
2688
2623
2495
2327
2176
2039
1921
1809
1718
1637
1584
1569
1577
1615
1666
1744
1817
1873
1894
1894
1918
1938
1943
1953
1962
1973
1981
1983
1984
1981
1983
2000
2000
2004
2002
1989
1971
1970
1984
2003
2026
2038
2062
2076
2066
2053
2041
2032
2026
2040
2035
2032
2045
2069
2102
2143
2175
2187
2201
2213
2195
2181
2187
2203
2215
2231
2243
2231
2224
2207
2203
2223
2267
2306
2329
2330
2320
2285
2257
2247
2257
2279
2273
2283
2285
2262
2229
2210
2211
2214
2215
2210
2199
2182
2166
2133
2113
2099
2109
2128
2145
2142
2127
2116
2105
2108
2114
2121
2139
2142
2121
2103
2091
2079
2079
2083
2069
2053
2032
2018
2021
2016
2031
2032
2061
2070
2073
2064
2032
2003
2007
2013
2000
2001
2000
2000
1993
1982
1989
2003
2026
2043
2055
2032
2027
2026
2047
2083
2126
2147
2142
2122
2087
2045
2034
2046
2064
2062
2055
2013
1985
1963
1939
1938
1944
1959
1972
1977
1974
1959
1930
1920
1919
1931
1943
1958
1983
1999
2002
2011
2031
2041
2044
2042
2031
2001
1970
1933
1909
1946
2031
2137
2242
2352
2449
2545
2623
2655
2627
2522
2387
2237
2071
1902
1755
1655
1600
1573
1574
1584
1613
1648
1691
1739
1788
1857
1917
1951
1955
1940
1932
1926
1917
1920
1950
1981
1985
1974
1977
1979
1984
1996
2015
2038
2037
2021
2000
1975
1968
1995
2043
2086
2109
2099
2080
2064
2064
2092
2112
2131
2151
2149
2149
2146
2149
2160
2177
2198
2224
2239
2251
2243
2245
2256
2282
2310
2323
2320
2298
2289
2297
2294
2295
2314
2322
2322
2313
2286
2246
2229
2254
2287
2296
2271
2223
2175
2119
2096
2096
2119
2137
2157
2163
2159
2131
2111
2082
2065
2059
2061
2064
2064
2052
2045
2035
2032
2030
2032
2037
2027
2007
1989
1973
1968
1967
1971
1969
1963
1959
1950
1936
1950
1971
1999
2023
2008
1972
1939
1930
1933
1940
1975
2001
2000
1996
1982
1950
1934
1936
1947
1957
1966
1980
2004
2028
2042
2043
2043
2032
2019
2018
2003
1997
1989
1982
1971
1968
1974
1983
1979
1960
1941
1936
1924
1946
1961
1976
1978
1974
1968
1960
1966
1982
2001
2026
2047
2063
2041
2003
1983
1974
1991
2015
2013
2003
1999
2018
2055
2142
2246
2352
2434
2493
2509
2479
2412
2311
2201
2094
1991
1879
1779
1692
1607
1568
1580
1616
1680
1753
1806
1851
1875
1903
1936
1970
1999
2015
2023
2016
2007
2007
2019
2045
2064
2076
2077
2064
2032
2013
2004
2016
2047
2089
2112
2128
2145
2133
2112
2098
2110
2126
2145
2161
2159
2143
2121
2105
2110
2155
2203
2240
2251
2227
2214
2211
2211
2236
2271
2303
2319
2320
2310
2325
2345
2368
2386
2385
2398
2387
2368
2353
2346
2337
2330
2311
2297
2275
2244
2201
2176
2159
2150
2159
2163
2155
2129
2098
2079
2065
2065
2064
2067
2059
2059
2037
2015
2000
2005
2022
2033
2039
2030
2018
1997
1985
1998
2017
2032
2045
2043
2038
2031
2039
2047
2023
2003
2000
2000
1995
1981
1965
1957
1969
2004
2030
2036
2034
2015
2005
2000
2009
2021
2035
2059
2064
2055
2029
2009
2021
2043
2059
2082
2095
2081
2058
2032
2014
2014
2030
2032
2014
1985
1955
1927
1910
1918
1934
1953
1962
1968
1965
1964
1962
1961
1975
1995
2007
2006
1993
1984
1972
1973
1986
2002
2016
2013
2011
1996
1970
1955
1939
1936
1953
1973
2000
2021
2039
2071
2100
2109
2097
2064
2003
1905
1793
1699
1616
1557
1507
1486
1484
1499
1526
1564
1610
1681
1755
1839
1889
1921
1948
1965
1962
1953
1952
1953
1974
1988
2000
1994
1965
1939
1926
1930
1947
1984
2007
2009
1999
1984
1986
1985
1994
1997
1989
1981
1968
1963
1968
2000
2032
2059
2079
2069
2054
2045
2063
2086
2116
2130
2147
2157
2156
2141
2129
2147
2172
2191
2209
2212
2213
2192
2186
2170
2159
2169
2175
2179
2165
2144
2112
2100
2086
2089
2097
2102
2087
2061
2014
1986
1962
1951
1951
1950
1931
1921
1909
1908
1897
1891
1877
1867
1858
1853
1837
1819
1811
1820
1838
1861
1871
1856
1840
1819
1807
1799
1793
1803
1808
1805
1801
1803
1799
1788
1773
1749
1745
1775
1776
1774
1759
1759
1773
1791
1793
1781
1760
1744
1728
1719
1715
1743
1774
1793
1790
1761
1735
1712
1712
1715
1731
1747
1749
1728
1691
1660
1648
1651
1668
1681
1683
1674
1666
1655
1647
1650
1665
1680
1682
1682
1687
1679
1652
1644
1672
1695
1717
1742
1731
1707
1669
1649
1620
1612
1614
1597
1585
1584
1607
1648
1695
1759
1819
1849
1842
1797
1703
1584
1472
1382
1323
1266
1232
1198
1171
1168
1200
1255
1323
1401
1473
1520
1535
1535
1553
1558
1557
1581
1599
1627
1637
1635
1616
1616
1622
1637
1653
1659
1660
1646
1634
1623
1619
1639
1663
1680
1681
1681
1675
1663
1671
1686
1697
1710
1712
1712
1711
1698
1695
1709
1725
1744
1747
1774
1779
1782
1787
1804
1825
1857
1881
1887
1868
1840
1825
1831
1845
1868
1891
1904
1889
1850
1806
1786
1798
1810
1811
1808
1794
1766
1749
1723
1714
1712
1717
1721
1728
1708
1671
1632
1615
1609
1630
1655
1667
1657
1647
1631
1632
1637
1648
1651
1650
1642
1619
1616
1616
1631
1657
1680
1680
1663
1639
1621
1611
1615
1618
1627
1650
1659
1648
1635
1611
1615
1625
1662
1681
1714
1727
1724
1709
1697
1701
1729
1760
1776
1778
1767
1733
1697
1681
1691
1700
1692
1683
1679
1664
1647
1634
1643
1661
1681
1707
1719
1713
1706
1685
1683
1701
1730
1743
1728
1696
1671
1667
1680
1724
1777
1811
1825
1814
1805
1783
1754
1744
1737
1730
1728
1742
1760
1783
1842
1923
2013
2119
2167
2169
2128
2059
1946
1826
1712
1622
1565
1515
1488
1472
1487
1521
1578
1638
1700
1758
1789
1797
1803
1821
1834
1856
1871
1877
1883
1894
1895
1907
1914
1918
1939
1971
1985
1990
1983
1965
1954
1968
1990
2021
2033
2034
2015
2007
2000
2011
2032
2047
2064
2068
2067
2064
2063
2074
2094
2112
2128
2160
2179
2195
2207
2214
2226
2246
2267
2288
2273
2254
2240
2245
2256
2272
2288
2306
2321
2326
2307
2295
2285
2282
2304
2315
2303
2274
2245
2240
2230
2218
2210
2222
2241
2245
2199
2167
2143
2131
2137
2165
2197
2211
2187
2144
2095
2082
2110
2160
2197
2218
2192
2159
2150
2138
2127
2130
2154
2168
2179
2190
2194
2187
2160
2148
2170
2195
2190
2147
2103
2093
2110
2132
2176
2214
2215
2211
2195
2177
2163
2179
2209
2225
2235
2226
2209
2210
2231
2255
2281
2283
2276
2256
2235
2210
2180
2161
2162
2165
2178
2187
2186
2167
2144
2128
2128
2139
2165
2179
2181
2177
2184
2166
2134
2128
2161
2218
2256
2256
2237
2224
2224
2224
2228
2240
2240
2237
2205
2186
2193
2227
2299
2375
2452
2503
2534
2522
2480
2409
2309
2213
2126
2039
1968
1887
1823
1802
1835
1900
1948
1994
2030
2079
2114
2139
2157
2177
2199
2235
2256
2256
2246
2237
2239
2251
2277
2305
2311
2306
2279
2247
2227
2234
2257
2285
2289
2288
2278
2283
2289
2305
2343
2363
2384
2396
2384
2367
2354
2364
2384
2411
2448
2466
2467
2455
2441
2439
2465
2506
2538
2555
2556
2559
2559
2551
2557
2598
2618
2608
2559
2544
2512
2506
2509
2535
2559
2582
2559
2533
2495
2445
2416
2413
2406
2407
2410
2395
2373
2348
2327
2325
2339
2352
2352
2343
2313
2293
2288
2303
2322
2341
2367
2363
2340
2318
2303
2277
2272
2279
2286
2284
2275
2250
2225
2209
2217
2237
2256
2265
2266
2256
2242
2220
2208
2224
2240
2267
2288
2289
2288
2263
2237
2231
2255
2281
2304
2293
2275
2250
2220
2219
2227
2266
2279
2284
2257
2224
2192
2160
2146
2145
2155
2154
2135
2114
2096
2067
2068
2081
2094
2106
2103
2080
2042
2039
2057
2090
2115
2128
2123
2114
2111
2103
2094
2093
2095
2098
2078
2041
2018
2005
1996
2001
2019
2082
2131
2155
2160
2160
2143
2105
2062
2002
1958
1888
1802
1729
1664
1602
1605
1665
1738
1780
1788
1819
1875
1925
1989
2043
2096
2129
2137
2128
2111
2096
2091
2106
2112
2130
2134
2128
2110
2095
2106
2123
2151
2165
2160
2143
2118
2095
2086
2108
2148
2183
2198
2193
2194
2181
2160
2162
2192
2224
2247
2254
2250
2249
2231
2233
2255
2261
2256
2230
2246
2274
2291
2293
2318
2341
2368
2384
2391
2368
2330
2295
2291
2314
2342
2353
2349
2320
2299
2270
2229
2213
2200
2192
2192
2187
2177
2160
2146
2128
2110
2096
2096
2109
2123
2116
2106
2106
2103
2110
2115
2123
2122
2103
2083
2076
2082
2096
2109
2112
2103
2094
2079
2068
2073
2096
2107
2113
2115
2105
2096
2085
2086
2091
2100
2103
2110
2096
2066
2032
2023
2058
2089
2139
2175
2178
2163
2125
2099
2097
2130
2153
2149
2128
2103
2083
2071
2066
2065
2064
2074
2070
2053
2027
2015
2011
2019
2033
2047
2063
2047
2047
2023
2005
2021
2035
2043
2047
2042
2015
1982
1968
1981
2006
2033
2064
2064
2046
2009
1969
1947
1941
1954
1982
2002
2013
2005
2000
1991
1967
1942
1907
1871
1825
1759
1712
1667
1642
1647
1673
1711
1751
1791
1805
1825
1859
1906
1945
1987
2021
2047
2054
2059
2058
2066
2082
2099
2107
2106
2095
2079
2064
2063
2069
2096
2114
2128
2134
2125
2105
2086
2081
2097
2122
2129
2137
2145
2135
2119
2112
2118
2143
2173
2190
2190
2185
2193
2202
2221
2239
2256
2261
2263
2271
2274
2288
2287
2288
2285
2290
2286
2273
2256
2256
2261
2257
2265
2269
2261
2253
2231
2211
2192
2183
2181
2191
2175
2135
2103
2074
2054
2063
2087
2111
2118
2106
2069
2038
2031
2038
2055
2067
2071
2069
2054
2030
2014
2015
2039
2071
2094
2087
2071
2039
2013
1994
2000
2019
2047
2083
2109
2106
2083
2061
2039
2038
2055
2077
2096
2093
2070
2046
2043
2065
2091
2096
2100
2094
2081
2055
2034
2043
2069
2101
2123
2118
2093
2039
2009
2000
1994
2003
2032
2038
2026
2000
1984
1991
2000
2018
2037
2034
2031
2016
2000
1993
1997
2018
2043
2061
2045
2041
2032
2039
2032
2029
2032
2032
2041
2017
1972
1922
1905
1936
1984
2032
2098
2154
2174
2151
2101
2067
2021
1959
1881
1792
1718
1648
1587
1567
1578
1611
1655
1711
1765
1811
1838
1870
1923
1970
2010
2030
2035
2021
1995
1967
1947
1957
1971
1985
1994
1988
1985
1981
1979
1985
1999
2014
2029
2027
2011
1998
1984
2002
2030
2063
2085
2086
2076
2067
2077
2106
2140
2171
2193
2208
2196
2180
2165
2158
2173
2215
2244
2263
2259
2253
2246
2240
2239
2253
2266
2271
2256
2235
2219
2195
2189
2191
2217
2224
2208
2182
2157
2125
2111
2125
2130
2131
2123
2103
2080
2061
2047
2045
2063
2068
2071
2055
2032
2012
1990
1989
1999
2030
2064
2066
2061
2038
2030
2031
2057
2080
2103
2122
2117
2093
2062
2033
2033
2047
2071
2085
2078
2055
2023
2006
2000
2017
2043
2085
2108
2102
2089
2082
2083
2103
2128
2146
2157
2149
2131
2102
2076
2065
2062
2053
2037
2007
1973
1933
1910
1912
1922
1943
1968
1969
1969
1954
1933
1933
1959
1966
1957
1945
1946
1956
1957
1959
1951
1945
1968
1995
2005
2018
2018
2007
1986
1965
1947
1938
1944
1981
2039
2126
2227
2345
2454
2542
2559
2559
2491
2354
2195
2059
1939
1851
1772
1713
1684
1667
1662
1689
1746
1808
1850
1869
1879
1884
1877
1869
1875
1881
1907
1937
1936
1937
1937
1925
1914
1917
1934
1931
1933
1926
1922
1927
1949
1962
1971
1981
1982
1968
1959
1947
1949
1962
1984
2000
2013
2007
2000
1997
1999
1999
2006
2015
2026
2032
2029
2034
2035
2046
2068
2082
2096
2105
2110
2098
2076
2067
2065
2078
2090
2099
2096
2082
2069
2057
2047
2061
2080
2083
2085
2075
2046
2027
2010
2010
2005
2009
2009
2001
1997
1974
1957
1955
1967
1980
1977
1959
1949
1927
1904
1891
1914
1947
1974
1990
1977
1950
1920
1916
1927
1955
1971
1974
1967
1943
1909
1895
1872
1875
1902
1894
1876
1870
1867
1867
1874
1883
1893
1897
1890
1885
1875
1871
1863
1897
1920
1943
1959
1962
1957
1949
1941
1947
1951
1984
2009
2000
1962
1913
1875
1861
1867
1882
1901
1905
1886
1856
1830
1809
1810
1830
1844
1866
1869
1843
1813
1780
1782
1799
1833
1853
1872
1867
1853
1834
1826
1824
1835
1840
1841
1851
1871
1921
2000
2128
2286
2442
2583
2693
2752
2763
2694
2559
2419
2247
2085
1918
1757
1609
1476
1408
1402
1443
1511
1575
1616
1637
1646
1659
1686
1726
1757
1782
1803
1812
1820
1813
1814
1827
1855
1863
1853
1829
1802
1787
1804
1831
1859
1885
1902
1891
1863
1842
1851
1866
1891
1915
1934
1939
1931
1923
1923
1933
1953
1975
1986
1997
2001
2005
1997
2006
2045
2090
2115
2118
2102
2081
2051
2031
2038
2069
2118
2147
2163
2155
2121
2112
2131
2159
2176
2178
2176
2156
2117
2098
2107
2113
2133
2143
2133
2101
2055
1999
1982
1975
1968
1970
1987
1977
1958
1953
1968
1991
2018
2033
2060
2039
2027
1978
1947
1922
1936
1965
1982
1996
2000
1999
1987
1994
2015
2036
2038
2046
2042
2030
2011
1984
1972
1980
1999
2015
2011
1994
1979
1966
1955
1968
2001
2032
2032
2030
2016
2005
1994
1997
2014
2025
2030
2032
2031
2029
2002
1980
1971
1965
1953
1945
1936
1931
1914
1911
1930
1943
1953
1955
1955
1968
1981
1987
1979
1971
1957
1951
1953
1925
1906
1899
1901
1927
1953
1967
1975
1971
1963
1943
1939
1985
2096
2235
2381
2499
2607
2687
2724
2711
2643
2515
2367
2197
2025
1872
1730
1637
1569
1534
1534
1578
1616
1675
1713
1757
1808
1861
1910
1946
1959
1969
1950
1925
1918
1929
1933
1941
1952
1960
1961
1947
1941
1950
1975
1986
1997
1999
2001
2001
2028
2047
2073
2096
2111
2128
2123
2094
2089
2091
2096
2112
2128
2134
2141
2149
2150
2158
2182
2208
2224
2238
2261
2285
2273
2258
2256
2271
2300
2327
2323
2304
2281
2267
2257
2256
2263
2282
2287
2274
2251
2222
2197
2197
2193
2210
2209
2192
2133
2090
2063
2047
2064
2082
2106
2110
2103
2091
2041
2013
2031
2046
2064
2067
2071
2064
2057
2043
2045
2061
2068
2090
2079
2057
2028
2022
2032
2055
2058
2064
2066
2077
2077
2071
2064
2045
2047
2064
2079
2082
2064
2040
2027
2033
2061
2094
2116
2117
2105
2091
2079
2075
2093
2112
2117
2115
2109
2096
2075
2065
2059
2052
2047
2032
2010
2003
1991
1989
1991
2000
2016
2026
2035
2035
2032
2026
2033
2046
2065
2071
2067
2065
2045
2046
2053
2070
2081
2096
2096
2095
2070
2032
1987
1951
1951
1981
2061
2160
2248
2319
2368
2373
2352
2302
2249
2175
2082
1981
1877
1780
1698
1648
1626
1643
1682
1741
1789
1830
1871
1921
1968
2011
2057
2077
2083
2083
2090
2095
2095
2096
2097
2110
2126
2128
2127
2122
2118
2122
2117
2128
2128
2118
2096
2090
2089
2084
2101
2126
2144
2155
2160
2170
2186
2197
2192
2192
2192
2197
2213
2239
2273
2304
2325
2334
2335
2327
2323
2323
2327
2335
2343
2355
2357
2366
2370
2367
2351
2341
2337
2334
2323
2309
2285
2263
2250
2237
2219
2211
2205
2199
2197
2187
2167
2151
2139
2128
2118
2102
2102
2102
2096
2087
2075
2064
2064
2073
2083
2073
2055
2043
2051
2063
2071
2069
2062
2046
2034
2032
2026
2025
2023
2027
2019
2022
2018
2013
2011
2033
2045
2055
2074
2096
2095
2066
2038
2026
2022
2022
2018
2030
2033
2038
2047
2047
2055
2056
2058
2066
2069
2067
2036
2015
2006
2004
2001
1997
1965
1933
1926
1921
1927
1937
1958
1969
1969
1968
1959
1943
1943
1966
1994
2010
2007
1994
1983
1981
1971
1983
2004
2020
2013
1994
1969
1958
1947
1921
1910
1903
1905
1920
1942
1979
2019
2065
2110
2138
2157
2141
2095
2000
1887
1776
1695
1646
1618
1616
1617
1622
1630
1647
1669
1721
1772
1819
1859
1899
1925
1930
1947
1980
2001
2025
2032
2032
2032
2026
2017
2031
2045
2055
2053
2039
2036
2032
2031
2032
2057
2089
2111
2107
2084
2074
2067
2082
2093
2101
2117
2133
2146
2148
2145
2138
2154
2172
2194
2199
2197
2194
2207
2211
2223
2230
2230
2226
2227
2223
2217
2213
2225
2230
2225
2241
2240
2238
2224
2199
2187
2170
2177
2187
2194
2189
2192
2160
2123
2102
2097
2096
2083
2067
2055
2032
2020
1997
1989
2007
2027
2032
2033
2022
2014
2006
1999
1996
2003
2000
1999
1998
1999
2010
2011
2019
2022
2027
2005
1988
1979
1971
1974
1983
2001
2027
2029
2027
2018
2007
2006
2013
2025
2032
2043
2046
2044
2030
2022
2033
2060
2078
2080
2080
2074
2065
2039
2019
2011
2014
2015
2001
1993
1991
1994
1984
1970
1961
1950
1951
1953
1947
1950
1949
1951
1965
1968
1966
1959
1953
1953
1947
1952
1963
1990
2006
2015
2020
2006
1983
1970
1978
1979
1947
1921
1915
1909
1895
1905
1937
1971
1995
2015
2035
2038
2021
1979
1920
1871
1825
1789
1744
1703
1655
1627
1617
1631
1664
1715
1763
1807
1853
1881
1923
1954
1987
2017
2041
2057
2045
2039
2039
2047
2061
2062
2062
2055
2059
2058
2045
2032
2031
2043
2065
2084
2096
2098
2093
2080
2081
2079
2094
2119
2130
2128
2116
2112
2118
2128
2145
2160
2177
2176
2176
2163
2163
2191
2222
2257
2275
2270
2252
2239
2229
2231
2244
2249
2251
2247
2231
2214
2195
2197
2219
2235
2234
2229
2205
2184
2157
2138
2134
2137
2155
2161
2155
2127
2096
2070
2047
2034
2034
2039
2045
2047
2045
2037
2032
2033
2047
2064
2076
2075
2065
2045
2019
2000
2000
2015
2033
2039
2031
2013
1986
1973
1978
1989
2011
2022
2018
2000
1985
1977
1987
2017
2042
2045
2036
2030
2023
2013
2015
2029
2046
2082
2068
2063
2035
2021
2017
2032
2047
2064
2055
2035
2017
2013
2010
1981
1981
1995
2011
1997
1970
1960
1964
1988
1994
1991
1981
1970
1967
1943
1920
1908
1919
1925
1938
1957
1962
1957
1956
1956
1970
1998
2023
2031
2017
1984
1936
1904
1899
1905
1941
1991
2058
2113
2161
2189
2191
2174
2141
2075
1972
1859
1757
1665
1601
1573
1567
1599
1643
1675
1708
1744
1796
1845
1891
1929
1946
1939
1943
1946
1936
1946
1958
1965
1978
1987
1989
1982
1991
1993
1984
1984
1991
2003
2013
2006
1985
1974
1969
1975
1995
2014
2026
2015
2006
2007
1997
1988
2000
2032
2073
2096
2098
2097
2112
2125
2129
2144
2160
2160
2154
2147
2153
2155
2153
2166
2182
2179
2171
2157
2146
2151
2159
2157
2151
2145
2135
2119
2110
2108
2109
2109
2099
2091
2070
2045
2015
1987
1974
1968
1978
1972
1972
1971
1972
1969
1953
1954
1968
1977
1984
1982
1971
1979
1971
1963
1952
1955
1963
1963
1955
1948
1945
1949
1949
1958
1957
1969
1982
1982
1970
1955
1955
1956
1967
1979
1978
1965
1943
1936
1935
1949
1969
1993
2013
2014
2003
2005
1998
1996
1991
1985
1990
1987
1987
1993
1982
1984
1982
1974
1965
1943
1945
1936
1927
1922
1935
1955
1967
1963
1938
1914
1905
1904
1903
1911
1927
1936
1936
1927
1922
1921
1936
1943
1962
1969
1965
1941
1929
1919
1901
1887
1879
1877
1887
1931
2000
2091
2187
2267
2336
2364
2347
2298
2224
2111
1994
1896
1794
1718
1679
1647
1621
1616
1639
1666
1738
1808
1863
1902
1920
1931
1935
1937
1941
1941
1953
1965
1981
1973
1959
1955
1950
1969
1982
1987
1993
1983
1984
1967
1951
1946
1947
1963
1983
2001
2024
2029
2019
2023
2032
2044
2047
2053
2039
2033
2037
2046
2063
2093
2115
2123
2118
2121
2144
2160
2175
2197
2214
2218
2211
2199
2192
2179
2173
2161
2161
2161
2162
2174
2169
2151
2127
2115
2113
2121
2117
2103
2086
2069
2047
2044
2047
2045
2032
2017
2000
1990
1984
1981
1987
2000
1993
1981
1984
1984
1984
1997
2009
2011
2011
2007
1991
1983
1973
1969
1974
1985
1999
1999
1996
1975
1963
1959
1967
1975
1995
1999
1981
1968
1959
1952
1952
1955
1953
1946
1937
1934
1926
1927
1920
1925
1937
1968
1981
1981
1982
1983
1974
1968
1984
2006
2023
2026
2005
1987
1959
1943
1931
1927
1924
1911
1902
1899
1889
1887
1879
1888
1904
1902
1891
1875
1853
1846
1847
1859
1872
1883
1899
1906
1919
1933
1941
1952
1968
1991
1997
1979
1947
1907
1872
1863
1878
1941
2032
2140
2247
2348
2417
2459
2474
2447
2370
2240
2087
1943
1808
1707
1638
1601
1584
1590
1605
1634
1675
1722
1774
1824
1869
1900
1905
1893
1895
1904
1909
1917
1929
1935
1933
1924
1920
1923
1932
1936
1945
1956
1968
1974
1975
1973
1969
1986
1990
1995
1991
1987
1981
1995
2011
2019
2032
2057
2064
2071
2080
2095
2092
2097
2119
2128
2143
2157
2153
2144
2145
2171
2207
2240
2253
2253
2240
2222
2202
2192
2191
2198
2208
2207
2188
2166
2147
2144
2150
2141
2133
2129
2118
2103
2109
2102
2094
2093
2091
2087
2070
2043
2027
2011
1999
1996
2005
2023
2033
2029
2015
2007
2007
2015
2035
2037
2035
2011
2002
1981
1970
1958
1968
1971
1993
1983
1989
1991
1975
1959
1957
1970
1983
1998
1989
1978
1963
1955
1953
1960
1981
1995
2002
2003
1987
1950
1923
1914
1911
1931
1955
1974
1977
1970
1968
1975
1995
2018
2031
2021
1985
1963
1955
1972
1983
1984
1978
1969
1967
1959
1939
1918
1919
1923
1930
1926
1918
1911
1915
1917
1923
1935
1949
1949
1939
1920
1923
1927
1955
1974
1991
2002
2001
1984
1949
1910
1891
1896
1927
1983
2064
2151
2239
2315
2399
2475
2511
2515
2485
2389
2240
2064
1885
1749
1651
1566
1511
1502
1518
1552
1591
1631
1682
1749
1817
1869
1887
1890
1878
1887
1906
1931
1942
1955
1959
1947
1918
1910
1934
1952
1977
1991
1985
1973
1969
1967
1959
1954
1965
1983
1998
2001
1994
1969
1967
1984
2016
2062
2091
2082
2080
2075
2076
2097
2117
2133
2153
2163
2171
2160
2140
2138
2160
2178
2199
2233
2258
2260
2249
2240
2235
2231
2234
2242
2253
2253
2251
2237
2224
2223
2222
2223
2224
2221
2189
2143
2111
2097
2099
2098
2096
2079
2045
2015
2008
2015
2021
2039
2064
2073
2064
2047
2038
2027
2027
2045
2068
2070
2042
2015
1987
1987
2000
2007
2010
2019
2031
2032
2017
2009
2016
2031
2033
2031
2020
2017
2002
1989
1987
1987
2000
2000
1998
1997
1993
1983
2000
2015
2011
2023
2039
2065
2069
2063
2032
2004
2017
2064
2093
2091
2071
2034
2001
1984
1981
1986
1995
2001
1993
1969
1949
1936
1946
1961
1983
1980
1966
1954
1936
1930
1938
1965
1983
1993
2002
2007
2020
2019
2015
2018
2032
2039
2042
2016
1977
1939
1937
1939
1947
1963
1969
2011
2061
2110
2156
2192
2212
2214
2196
2162
2099
1993
1878
1777
1701
1627
1580
1535
1530
1535
1585
1625
1680
1747
1813
1873
1918
1939
1961
1982
1987
1999
2014
2015
2000
1999
2000
2001
2003
2007
2020
2046
2075
2079
2059
2033
2031
2045
2069
2071
2074
2086
2088
2094
2096
2094
2097
2121
2146
2153
2150
2133
2118
2115
2134
2160
2207
2243
2271
2281
2282
2287
2288
2290
2303
2306
2289
2279
2269
2269
2282
2279
2290
2304
2304
2291
2272
2251
2239
2238
2245
2255
2255
2241
2223
2190
2161
2128
2115
2114
2112
2099
2087
2066
2043
2025
2014
2014
2006
1999
1987
1975
1958
1946
1947
1959
1987
2022
2043
2035
2013
1995
1999
2003
2013
2000
1982
1941
1918
1909
1920
1952
1982
1997
1996
1983
1963
1938
1930
1934
1949
1968
1973
1980
1983
1979
1998
2000
2009
2002
2000
1989
1983
1974
1968
1973
1988
2012
2035
2057
2064
2045
2023
2011
2017
2011
2011
1993
1962
1939
1936
1936
1922
1911
1918
1935
1920
1914
1891
1862
1847
1850
1872
1903
1923
1923
1925
1927
1926
1922
1946
1975
1994
1991
1974
1964
1961
1959
1949
1947
1941
1920
1907
1905
1934
1983
2026
2065
2092
2070
2010
1925
1825
1728
1659
1617
1583
1535
1520
1511
1523
1578
1646
1712
1774
1829
1866
1875
1901
1922
1938
1959
1981
2001
2030
2032
2012
1987
1971
1969
1986
2015
2028
2025
2014
2006
2007
2006
2019
2043
2073
2077
2067
2064
2057
2037
2032
2047
2093
2116
2123
2119
2113
2096
2096
2124
2149
2166
2192
2198
2202
2192
2192
2213
2239
2249
2256
2251
2253
2223
2240
2254
2261
2273
2278
2276
2261
2245
2224
2206
2213
2221
2218
2207
2177
2144
2123
2107
2105
2109
2112
2099
2082
2064
2037
2029
2027
2020
2031
2041
2039
2032
2015
2003
2000
2000
2015
2022
2027
2021
2000
1983
1982
1974
1983
1999
2000
1993
1987
1977
1953
1953
1967
1991
2005
2021
2011
1990
1969
1967
1974
1974
1984
1994
2005
2000
1987
1987
2000
2015
2016
1997
1975
1971
1973
1997
2025
2047
2067
2089
2076
2038
2007
2000
1995
1984
1979
1978
1963
1929
1892
1877
1889
1919
1950
1967
1973
1957
1937
1920
1914
1914
1922
1933
1949
1951
1949
1940
1922
1909
1915
1935
1948
1949
1935
1919
1904
1901
1912
1923
1920
1917
1930
1965
2011
2065
2103
2134
2141
2115
2064
1966
1856
1745
1665
1617
1584
1563
1553
1557
1567
1610
1662
1719
1781
1840
1881
1913
1917
1905
1895
1906
1938
1962
1979
1993
2000
1991
1987
1989
1989
1994
2000
1997
1984
1970
1955
1950
1964
1975
1997
2014
2019
2023
2015
2012
2017
2035
2071
2094
2109
2107
2098
2087
2102
2124
2160
2178
2192
2187
2167
2160
2160
2174
2203
2228
2247
2256
2254
2240
2227
2225
2224
2225
2224
2213
2209
2208
2192
2179
2179
2185
2171
2148
2126
2096
2080
2067
2063
2054
2038
2043
2037
2032
2023
2014
2009
2017
2014
2011
2001
2000
1993
1993
1990
1983
1978
1972
1959
1957
1964
1952
1950
1957
1967
1982
1985
1981
1941
1923
1916
1920
1920
1920
1923
1931
1917
1942
1946
1943
1955
1968
1974
1984
1983
1966
1950
1922
1936
1963
1991
2002
1985
1983
1965
1958
1963
1973
1984
1993
1983
1962
1939
1929
1914
1903
1903
1897
1883
1867
1856
1859
1852
1846
1849
1866
1887
1875
1856
1843
1843
1856
1871
1893
1922
1937
1936
1922
1917
1919
1936
1962
1968
1955
1939
1919
1891
1853
1821
1813
1838
1889
1946
2002
2066
2123
2157
2175
2174
2127
2023
1890
1765
1648
1562
1504
1488
1516
1535
1576
1589
1606
1643
1712
1792
1843
1878
1905
1923
1925
1926
1923
1926
1936
1950
1947
1943
1937
1935
1933
1919
1914
1921
1942
1936
1929
1919
1914
1923
1937
1942
1947
1958
1967
1970
1990
2007
2021
2026
2031
2026
2008
2006
2019
2032
2054
2085
2112
2112
2106
2105
2112
2112
2141
2160
2169
2176
2177
2176
2161
2146
2129
2127
2127
2151
2153
2142
2118
2095
2082
2083
2086
2093
2083
2074
2071
2038
2002
1984
1985
1989
1979
1967
1954
1939
1922
1904
1872
1867
1885
1905
1913
1910
1919
1921
1920
1925
1934
1936
1925
1906
1899
1877
1856
1840
1856
1887
1902
1891
1872
1851
1831
1829
1856
1888
1905
1906
1885
1872
1869
1859
1856
1872
1895
1904
1901
1887
1869
1859
1869
1891
1904
1908
1899
1891
1893
1910
1935
1953
1969
1977
1971
1951
1920
1895
1870
1855
1840
1839
1829
1808
1792
1782
1791
1808
1826
1845
1855
1851
1836
1811
1799
1799
1819
1839
1838
1831
1839
1852
1870
1878
1886
1897
1905
1898
1863
1839
1819
1814
1808
1818
1840
1877
1935
1991
2055
2113
2182
2207
2215
2173
2083
1947
1815
1682
1568
1478
1435
1429
1428
1462
1506
1565
1621
1685
1746
1790
1819
1851
1872
1876
1873
1875
1893
1904
1904
1901
1879
1872
1863
1872
1891
1925
1961
1975
1968
1949
1936
1946
1968
1978
1997
2005
2019
2022
2009
2011
2025
2045
2067
2081
2086
2095
2085
2092
2098
2117
2130
2140
2155
2164
2167
2175
2206
2231
2255
2275
2278
2267
2265
2257
2247
2249
2245
2241
2240
2225
2203
2171
2159
2174
2196
2209
2213
2213
2190
2144
2095
2055
2043
2061
2066
2061
2039
2009
1991
1981
1981
1986
2000
1999
1983
1969
1953
1935
1920
1925
1942
1957
1971
1984
1972
1968
1967
1977
1997
2011
2000
1971
1925
1901
1903
1916
1938
1961
1983
1997
1982
1955
1938
1934
1936
1955
1968
1969
1948
1926
1910
1912
1916
1936
1954
1984
2003
1997
1984
2007
2035
2065
2064
2047
2033
2019
1999
1984
1969
1968
1974
1981
1983
1961
1936
1921
1917
1923
1936
1959
1966
1955
1934
1901
1890
1899
1907
1920
1930
1929
1919
1901
1902
1914
1941
1968
1985
1990
1983
1966
1941
1927
1919
1920
1930
1921
1935
1954
1983
2013
2037
2064
2053
2019
1954
1870
1759
1651
1579
1515
1487
1473
1481
1495
1520
1565
1618
1690
1759
1817
1857
1886
1907
1919
1945
1977
1998
2001
1997
1986
1968
1949
1943
1953
1970
2007
2038
2047
2023
1993
1978
1983
1999
2029
2054
2060
2061
2062
2059
2053
2059
2083
2099
2125
2137
2139
2137
2137
2142
2145
2170
2203
2223
2219
2203
2189
2193
2222
2240
2256
2263
2257
2247
2240
2241
2247
2277
2299
2298
2285
2253
2213
2193
2191
2193
2221
2241
2239
2219
2170
2135
2091
2080
2089
2096
2094
2075
2034
2000
1978
1979
1981
1981
1969
1963
1960
1952
1951
1964
1979
1991
2001
2019
2011
1996
1991
1991
1989
1981
1983
1986
1983
1970
1978
1967
1951
1954
1967
1979
1973
1963
1953
1946
1951
1954
1963
1985
2007
2031
2039
2033
2021
2013
2011
2014
2018
2016
2013
2005
2013
2025
2026
2035
2058
2064
2047
2014
1993
1975
1967
1966
1961
1959
1937
1916
1893
1890
1880
1898
1914
1925
1923
1907
1879
1872
1878
1886
1890
1902
1910
1924
1936
1943
1951
1959
1968
1982
1989
1984
1959
1931
1905
1886
1879
1892
1904
1922
1933
1933
1939
1947
1951
1936
1905
1846
1759
1680
1610
1570
1555
1563
1582
1600
1622
1646
1659
1689
1735
1802
1861
1917
1957
1975
1983
1970
1968
1973
1978
1983
1982
1969
1957
1962
1980
2002
2022
2043
2058
2047
2037
2025
2009
1997
1991
1997
2002
2002
2007
2017
2032
2046
2069
2082
2079
2072
2060
2064
2079
2101
2122
2153
2179
2210
2225
2233
2226
2212
2205
2218
2234
2254
2261
2263
2259
2253
2247
2243
2254
2271
2255
2227
2198
2177
2167
2170
2176
2174
2160
2153
2130
2090
2042
2018
2031
2047
2068
2067
2039
2021
2005
1998
1977
1984
1991
1983
1979
1967
1955
1965
1973
1977
1968
1961
1945
1937
1923
1919
1919
1920
1920
1915
1911
1927
1937
1935
1913
1905
1919
1936
1938
1931
1913
1906
1888
1872
1874
1891
1907
1936
1950
1957
1936
1923
1922
1929
1947
1947
1945
1951
1959
1969
1962
1961
1947
1934
1915
1895
1873
1855
1839
1818
1795
1807
1790
1776
1786
1771
1774
1789
1808
1837
1851
1831
1814
1807
1798
1791
1815
1837
1856
1862
1855
1840
1833
1831
1835
1847
1858
1851
1838
1806
1776
1773
1791
1826
1875
1923
1979
2011
2015
1999
1967
1936
1879
1803
1724
1654
1600
1535
1500
1493
1510
1535
1567
1598
1625
1655
1690
1731
1778
1823
1850
1861
1856
1841
1838
1839
1840
1861
1878
1875
1869
1870
1870
1872
1879
1899
1910
1915
1914
1904
1889
1881
1883
1889
1902
1904
1907
1904
1907
1921
1928
1931
1935
1950
1945
1927
1909
1901
1894
1915
1953
1979
1979
1971
1963
1963
1966
1958
1965
1975
1986
1991
1993
1995
1985
1982
1982
1974
1966
1968
1953
1952
1947
1949
1951
1933
1903
1856
1821
1805
1803
1797
1805
1819
1831
1819
1797
1777
1771
1781
1802
1815
1818
1808
1778
1751
1725
1714
1722
1718
1712
1712
1719
1730
1732
1733
1741
1750
1761
1765
1767
1768
1759
1744
1735
1713
1719
1718
1707
1699
1703
1719
1742
1757
1774
1778
1776
1754
1744
1756
1762
1774
1785
1785
1777
1776
1775
1781
1776
1775
1778
1793
1794
1792
1777
1741
1699
1669
1651
1648
1658
1666
1664
1665
1663
1661
1665
1670
1677
1683
1681
1691
1686
1688
1680
1681
1697
1710
1725
1729
1725
1719
1733
1746
1749
1743
1729
1717
1707
1693
1702
1755
1849
1936
2010
2061
2044
2000
1951
1866
1747
1650
1581
1495
1425
1366
1359
1365
1392
1429
1486
1535
1584
1626
1651
1679
1695
1712
1731
1745
1759
1759
1763
1715
1681
1676
1679
1713
1744
1767
1759
1755
1753
1747
1749
1763
1757
1776
1796
1813
1808
1795
1795
1794
1802
1811
1820
1811
1810
1818
1840
1875
1890
1898
1900
1898
1901
1911
1922
1943
1965
1981
1987
1998
1999
1995
1997
2001
2022
2035
2047
2041
2031
2031
2027
2030
2036
2047
2054
2063
2065
2065
2064
2070
2064
2037
2006
1984
1984
1983
1979
1987
1983
1968
1971
1983
1978
1959
1936
1936
1957
1981
1989
1986
1978
1945
1899
1872
1872
1904
1948
1968
1984
1993
1979
1971
1964
1936
1919
1921
1933
1935
1933
1938
1941
1930
1909
1903
1891
1904
1927
1943
1950
1941
1936
1947
1963
1957
1936
1929
1926
1930
1946
1945
1940
1970
2032
2055
2064
2064
2059
2062
2071
2079
2077
2067
2043
2015
1991
1989
1994
1999
1995
1984
1961
1953
1949
1942
1954
1958
1968
1971
1970
1980
1982
1971
1973
1979
1970
1971
1971
1968
1968
1954
1964
1990
2026
2038
2046
2060
2036
1984
1957
1995
2101
2224
2352
2465
2549
2596
2610
2559
2489
2377
2241
2096
1937
1783
1663
1583
1554
1571
1600
1611
1637
1687
1751
1802
1856
1925
1965
1986
2000
1999
1994
2000
2006
2011
2026
2034
2038
2031
2032
2059
2046
2033
2039
2065
2078
2059
2060
2096
2139
2172
2175
2159
2133
2119
2116
2131
2155
2176
2192
2215
2224
2225
2225
2249
2249
2254
2281
2311
2339
2355
2367
2368
2381
2399
2416
2433
2446
2448
2443
2434
2431
2429
2420
2431
2429
2404
2385
2378
2349
2313
2301
2307
2315
2310
2302
2291
2284
2273
2271
2274
2271
2257
2265
2238
2208
2190
2183
2187
2192
2205
2217
2221
2206
2186
2177
2176
2166
2175
2175
2170
2151
2126
2112
2116
2126
2123
2118
2129
2138
2129
2112
2096
2098
2112
2116
2115
2107
2096
2076
2064
2080
2124
2161
2173
2153
2119
2096
2083
2081
2086
2091
2099
2118
2153
2171
2168
2151
2132
2129
2145
2163
2158
2145
2122
2118
2122
2122
2111
2102
2090
2069
2039
2030
2032
2064
2082
2094
2099
2091
2076
2065
2069
2076
2097
2121
2137
2135
2128
2117
2113
2126
2132
2151
2170
2150
2103
2039
2000
2004
2057
2144
2258
2381
2478
2533
2559
2582
2593
2544
2443
2303
2159
2013
1887
1776
1692
1653
1651
1680
1715
1772
1823
1859
1904
1966
2019
2061
2075
2090
2093
2093
2094
2100
2113
2132
2153
2160
2177
2180
2171
2161
2154
2149
2155
2171
2179
2178
2157
2149
2188
2210
2224
2215
2206
2196
2200
2214
2234
2257
2274
2269
2259
2256
2254
2251
2269
2303
2336
2373
2391
2400
2406
2415
2426
2426
2421
2431
2435
2441
2449
2453
2461
2457
2457
2469
2454
2432
2416
2395
2368
2349
2333
2316
2304
2294
2291
2289
2287
2280
2283
2288
2287
2271
2250
2223
2192
2176
2176
2177
2177
2185
2187
2161
2128
2112
2096
2099
2112
2136
2157
2163
2154
2146
2138
2135
2123
2110
2093
2081
2093
2117
2128
2142
2146
2131
2115
2098
2080
2058
2057
2071
2071
2096
2110
2122
2121
2103
2082
2095
2126
2143
2156
2157
2155
2139
2122
2109
2112
2107
2098
2079
2054
2027
2022
2021
2029
2038
2055
2047
2043
2032
2021
1999
1972
1975
1997
2010
2030
2032
2026
2032
2025
2011
2018
2060
2089
2096
2089
2074
2039
2042
2038
2033
2054
2064
2064
2035
1993
1964
1979
2030
2102
2163
2191
2197
2176
2132
2085
2000
1909
1810
1729
1663
1611
1581
1558
1574
1617
1665
1712
1771
1837
1891
1925
1962
1977
1999
2019
2041
2042
2036
2039
2064
2084
2100
2119
2119
2117
2117
2112
2097
2111
2112
2111
2108
2110
2113
2119
2118
2114
2128
2145
2161
2160
2135
2124
2103
2114
2140
2161
2192
2205
2213
2206
2202
2212
2225
2256
2284
2295
2293
2288
2266
2263
2275
2282
2294
2305
2317
2308
2307
2313
2302
2299
2311
2307
2290
2257
2240
2218
2198
2189
2191
2192
2185
2161
2147
2128
2106
2092
2081
2074
2064
2057
2044
2029
2023
2023
2037
2059
2064
2055
2027
2021
2021
2021
2012
2029
2045
2044
2031
2002
1987
1974
1985
2015
2054
2063
2061
2058
2045
2030
2015
2001
1999
2002
2006
2015
2007
2008
2011
2023
2038
2047
2064
2061
2047
2053
2052
2063
2078
2097
2111
2099
2066
2042
2023
2017
2017
2027
2020
2003
1981
1963
1947
1935
1934
1950
1971
1975
1972
1965
1949
1943
1939
1931
1925
1925
1935
1938
1938
1933
1956
1985
2004
2001
2001
2006
1999
1981
1967
1937
1908
1877
1872
1870
1871
1878
1903
1939
1986
2023
2047
2033
1987
1922
1841
1766
1697
1649
1616
1589
1571
1568
1581
1616
1663
1712
1771
1823
1873
1905
1921
1919
1936
1975
2005
2030
2031
2027
2005
1996
1991
1991
2000
2005
2015
2005
1998
2000
2010
2007
2014
2019
2042
2064
2077
2065
2055
2046
2047
2073
2109
2107
2087
2089
2081
2103
2125
2159
2192
2192
2170
2150
2157
2182
2207
2222
2228
2234
2240
2243
2235
2231
2224
2229
2243
2261
2258
2245
2235
2230
2225
2210
2194
2191
2177
2167
2163
2149
2139
2123
2117
2112
2108
2090
2065
2034
2019
2015
2026
2041
2063
2063
2055
2045
2023
2000
1977
1973
1989
2011
2016
2015
1999
1982
1978
1985
2000
2004
1986
1968
1949
1936
1939
1955
1961
1972
1970
1965
1964
1966
1968
1980
1987
2001
2015
2011
1991
1967
1941
1936
1956
1981
2005
2019
2021
2023
2021
2015
2006
1997
2000
1997
1999
1984
1966
1929
1910
1904
1907
1904
1883
1868
1871
1903
1923
1923
1917
1924
1920
1910
1893
1887
1879
1878
1884
1904
1914
1915
1909
1903
1904
1905
1915
1923
1927
1922
1903
1870
1826
1806
1805
1835
1898
1961
2023
2087
2139
2177
2188
2157
2087
1982
1858
1733
1631
1535
1494
1477
1488
1528
1572
1616
1670
1722
1767
1807
1837
1845
1861
1867
1872
1872
1883
1891
1890
1901
1919
1934
1926
1923
1923
1914
1910
1922
1939
1955
1951
1939
1931
1939
1969
1999
2014
2018
2018
2010
2001
1994
1993
2007
2037
2053
2064
2066
2063
2059
2069
2086
2102
2121
2135
2146
2160
2163
2176
2191
2202
2199
2199
2207
2203
2193
2181
2173
2165
2150
2130
2118
2117
2106
2092
2092
2098
2098
2089
2063
2031
2006
1993
1986
1984
1987
1997
1986
1968
1955
1939
1935
1932
1938
1931
1936
1936
1918
1904
1904
1921
1943
1955
1942
1927
1911
1915
1918
1923
1928
1936
1947
1954
1965
1953
1943
1926
1927
1929
1943
1943
1938
1927
1909
1900
1887
1895
1910
1921
1923
1924
1919
1927
1947
1968
1983
1994
2001
2000
1983
1959
1946
1943
1947
1937
1931
1920
1901
1878
1873
1872
1872
1873
1876
1871
1867
1867
1869
1872
1885
1901
1907
1911
1913
1894
1869
1855
1865
1884
1906
1915
1921
1911
1898
1888
1891
1906
1918
1893
1863
1860
1894
1954
2043
2148
2237
2311
2370
2385
2353
2282
2166
2029
1900
1790
1694
1611
1534
1490
1488
1515
1574
1646
1707
1749
1779
1793
1801
1813
1839
1855
1872
1893
1906
1906
1916
1922
1939
1961
1961
1954
1951
1955
1939
1935
1934
1936
1955
1969
1964
1954
1963
1975
1991
2001
2019
2035
2045
2053
2053
2054
2060
2066
2074
2086
2091
2095
2102
2109
2111
2113
2124
2130
2148
2163
2175
2176
2177
2178
2185
2182
2173
2176
2195
2192
2160
2158
2153
2157
2161
2172
2165
2156
2144
2117
2101
2100
2098
2086
2072
2063
2045
2033
2012
2005
2007
2011
2007
2004
1991
1991
1993
2003
2023
2026
2000
1984
1982
1982
1967
1956
1951
1951
1964
1965
1957
1955
1955
1945
1951
1953
1961
1963
1962
1965
1959
1958
1959
1968
1968
1979
1974
1957
1942
1940
1953
1953
1954
1962
1967
1981
1986
1999
2012
2013
2025
2039
2033
2015
1994
1973
1942
1923
1920
1927
1925
1916
1904
1890
1891
1904
1918
1925
1923
1914
1902
1901
1904
1903
1917
1921
1919
1932
1948
1969
1970
1967
1961
1975
1984
1986
1979
1970
1968
1947
1925
1902
1890
1914
1954
2005
2081
2142
2207
2269
2313
2320
2291
2222
2105
1963
1826
1723
1641
1586
1552
1552
1573
1615
1658
1710
1746
1796
1849
1891
1909
1923
1939
1948
1946
1953
1967
1972
1981
1971
1963
1958
1965
1968
1978
1985
1991
2000
1997
1998
2011
2019
2032
2033
2030
2025
2043
2064
2067
2062
2055
2062
2074
2090
2096
2096
2099
2114
2128
2144
2153
2163
2165
2166
2173
2183
2195
2206
2224
2231
2234
2238
2246
2242
2243
2230
2223
2227
2222
2192
2171
2161
2175
2192
2213
2221
2197
2170
2132
2107
2089
2080
2074
2083
2076
2063
2031
2007
1999
2010
2019
2038
2047
2058
2045
2026
2022
2032
2032
2031
2030
2013
2017
2021
2026
2029
2031
2027
2017
2004
1995
1991
1981
1968
1963
1958
1969
1987
1998
1987
1981
1967
1967
1971
1984
1999
2000
2002
1999
1986
1975
1968
1973
1995
2023
2035
2047
2047
2037
2032
2031
2043
2035
2032
2031
2014
1994
1986
1987
1993
2000
1998
1995
1997
1986
1999
2001
1987
1981
1979
1981
1970
1959
1953
1967
1965
1965
1979
1983
1983
1987
1991
2001
2010
2009
2011
2000
1972
1937
1901
1872
1885
1936
1995
2041
2091
2112
2135
2128
2110
2075
2015
1924
1820
1731
1648
1585
1553
1570
1613
1658
1709
1750
1785
1811
1855
1905
1942
1993
2031
2061
2078
2076
2065
2047
2030
2033
2062
2068
2059
2047
2043
2060
2066
2071
2075
2085
2084
2082
2074
2067
2078
2093
2118
2138
2140
2132
2121
2111
2123
2128
2130
2138
2155
2166
2177
2177
2187
2211
2239
2250
2256
2257
2261
2257
2265
2263
2267
2285
2309
2318
2311
2292
2273
2263
2258
2257
2267
2270
2256
2235
2218
2222
2207
2192
2172
2145
2117
2089
2081
2062
2053
2047
2064
2066
2047
2031
2009
2003
2000
2000
2006
2015
2025
2025
2029
2028
2025
2026
2031
2033
2041
2043
2039
2018
2005
2013
2022
2017
2020
2032
2031
2022
2015
2016
2020
2029
2039
2037
2028
2025
2029
2022
2015
2015
2021
2019
2014
2006
2017
2026
2037
2055
2063
2047
2042
2054
2047
2032
2011
2002
2019
2014
1999
1984
1970
1959
1949
1947
1947
1951
1936
1928
1923
1921
1925
1935
1951
1973
1995
1999
1993
1967
1943
1935
1936
1939
1952
1954
1947
1935
1921
1920
1936
1936
1920
1906
1887
1872
1872
1890
1925
1968
1984
2008
2018
2001
1966
1909
1835
1767
1715
1667
1616
1582
1569
1584
1603
1645
1680
1730
1783
1839
1874
1905
1921
1936
1947
1968
1983
1991
1991
1984
1976
1982
1993
2003
1999
1990
1991
1992
1999
1991
1999
2011
2021
2032
2053
2057
2053
2042
2036
2041
2061
2085
2101
2111
2107
2111
2124
2138
2169
2192
2193
2175
2155
2143
2141
2157
2179
2197
2210
2215
2219
2220
2219
2219
2218
2215
2230
2241
2237
2211
2187
2172
2158
2157
2161
2164
2155
2130
2109
2095
2089
2091
2099
2096
2074
2035
2018
1997
1981
1979
1975
1983
1980
1975
1964
1968
1968
1977
2011
2022
2007
1978
1936
1931
1942
1959
1967
1984
2009
2013
2003
1984
1965
1965
1969
1985
1995
2000
1999
1989
1985
1981
1979
1990
2001
2014
2002
1993
1980
1981
1988
1986
1986
1987
1989
1982
1978
1968
1959
1961
1978
1999
2005
2013
2013
2002
1994
1971
1954
1942
1934
1920
1904
1889
1897
1893
1891
1900
1919
1938
1935
1923
1899
1895
1902
1922
1941
1954
1949
1937
1931
1926
1936
1952
1968
1981
1975
1946
1921
1887
1856
1823
1830
1863
1918
1978
2020
2060
2080
2067
2060
2032
1974
1907
1826
1743
1666
1609
1573
1566
1584
1610
1647
1680
1711
1744
1790
1835
1861
1872
1876
1904
1919
1931
1947
1966
1974
1977
1971
1959
1941
1936
1952
1970
1988
2006
2002
2005
1995
1981
1987
2002
2026
2045
2076
2089
2068
2031
2014
2034
2058
2065
2058
2038
2045
2064
2082
2110
2156
2192
2208
2211
2212
2210
2205
2206
2219
2234
2249
2250
2245
2227
2218
2205
2199
2208
2215
2206
2192
2192
2186
2175
2173
2163
2165
2163
2150
2129
2112
2094
2087
2091
2096
2096
2081
2063
2035
2031
2030
2028
2035
2032
2023
2025
2032
2015
1997
2000
2006
2013
2023
2026
2019
2013
2015
2025
2016
2006
2015
2025
2023
2012
2001
2000
2006
2009
2007
2005
1986
1978
1968
1969
1981
1999
2007
2009
2023
2039
2047
2039
2032
2046
2062
2075
2079
2066
2044
2032
2034
2047
2058
2059
2047
2006
1982
1963
1966
1981
1973
1971
1978
1968
1947
1920
1907
1922
1947
1969
1981
1974
1958
1933
1922
1924
1950
1978
2000
2013
2013
2006
1984
1965
1946
1948
1969
1987
1985
1951
1914
1899
1905
1946
2021
2096
2147
2187
2207
2207
2192
2170
2112
2009
1917
1822
1728
1653
1594
1562
1586
1623
1680
1732
1766
1794
1820
1850
1885
1925
1966
1979
1995
1995
1973
1965
1968
1977
1987
1979
1968
1962
1959
1958
1968
1988
2012
2032
2032
2026
2007
2007
2015
2017
2033
2054
2066
2087
2087
2083
2085
2090
2099
2115
2127
2128
2121
2107
2109
2126
2141
2147
2171
2178
2187
2195
2198
2213
2227
2238
2247
2250
2230
2215
2198
2185
2191
2192
2188
2183
2165
2145
2131
2127
2122
2126
2137
2151
2141
2115
2101
2085
2071
2064
2058
2047
2038
2033
2015
2001
1983
1968
1969
1983
1994
2001
2015
2012
2010
2013
2023
2034
2030
2001
1984
1968
1966
1962
1968
1974
1987
1991
1991
1985
1983
1991
2006
2019
2023
2031
2014
2010
1997
1991
1996
2000
1999
1995
1983
1973
1961
1963
1988
2017
2047
2077
2075
2062
2032
2013
2012
2030
2046
2061
2043
2032
2013
1997
1968
1937
1915
1922
1936
1936
1925
1907
1907
1920
1936
1939
1949
1968
1984
1985
1977
1969
1971
1969
1968
1987
1984
1977
1977
1968
1970
1975
1983
1975
1961
1935
1913
1908
1936
2002
2081
2161
2231
2288
2315
2310
2289
2231
2135
2016
1903
1779
1675
1587
1510
1480
1490
1535
1611
1679
1733
1778
1805
1835
1870
1909
1942
1967
1981
1984
1978
1971
1954
1941
1949
1957
1951
1936
1925
1917
1931
1954
1991
2026
2043
2033
2019
1986
1983
1987
2015
2047
2064
2071
2075
2071
2064
2061
2069
2085
2105
2115
2131
2143
2140
2135
2151
2165
2181
2199
2209
2206
2192
2179
2177
2186
2214
2240
2257
2256
2239
2217
2208
2199
2193
2176
2155
2131
2122
2121
2123
2127
2129
2132
2112
2075
2037
2018
2003
2005
2013
2022
2030
2032
2026
2009
1998
2002
2007
2011
2002
1983
1958
1961
1968
1966
1963
1979
1986
1984
1968
1953
1943
1946
1962
1968
1983
1986
1990
1983
1965
1951
1954
1968
1995
2014
2011
2000
1987
1967
1951
1962
1973
1983
1983
1984
1979
1972
1968
1971
1988
2013
2032
2029
2019
2007
2004
2015
2034
2054
2037
2017
1993
1952
1918
1899
1895
1895
1903
1913
1923
1923
1927
1923
1920
1921
1925
1936
1936
1938
1930
1920
1904
1904
1920
1949
1964
1966
1970
1966
1967
1989
1991
1976
1967
1952
1924
1899
1895
1907
1970
2058
2134
2203
2243
2256
2247
2219
2165
2087
1989
1888
1792
1691
1605
1558
1535
1568
1616
1659
1704
1747
1785
1813
1840
1877
1906
1922
1922
1918
1932
1942
1954
1968
1968
1941
1933
1926
1932
1930
1935
1938
1950
1959
1968
1973
1981
1991
1996
2014
2038
2069
2079
2065
2069
2071
2075
2079
2093
2099
2119
2125
2128
2128
2125
2128
2140
2155
2177
2187
2195
2192
2191
2194
2215
2227
2240
2253
2245
2237
2219
2195
2192
2177
2175
2188
2185
2163
2139
2123
2127
2128
2128
2122
2101
2092
2081
2064
2018
1996
1999
2004
1999
1990
1998
1989
1981
1968
1936
1950
1965
1974
1984
1978
1968
1963
1965
1969
1983
1987
1983
1965
1954
1936
1931
1936
1952
1961
1962
1962
1954
1941
1936
1950
1963
1967
1959
1967
1965
1951
1936
1920
1904
1905
1923
1935
1943
1936
1922
1927
1932
1933
1942
1952
1959
1958
1948
1939
1953
1983
2006
2017
2011
2000
1980
1942
1923
1925
1913
1904
1887
1859
1835
1833
1838
1857
1879
1902
1904
1903
1890
1872
1873
1871
1881
1904
1918
1930
1936
1926
1911
1908
1884
1874
1879
1894
1891
1870
1840
1808
1802
1824
1851
1890
1930
1968
1987
1994
1978
1959
1910
1851
1776
1681
1601
1527
1484
1462
1477
1508
1527
1566
1613
1653
1701
1744
1776
1802
1835
1866
1872
1890
1904
1915
1924
1938
1952
1966
1974
1976
1969
1970
1970
1975
1984
1997
2000
1989
1968
1951
1968
1993
2015
2027
2023
2019
2027
2033
2045
2055
2058
2067
2086
2095
2101
2106
2112
2130
2160
2170
2176
2186
2171
2160
2153
2153
2160
2192
2224
2240
2236
2227
2214
2209
2202
2193
2181
2170
2165
2161
2151
2139
2131
2127
2125
2123
2109
2093
2065
2037
2029
2031
2038
2046
2032
2011
2000
1984
1981
1987
1995
1999
1987
1968
1937
1920
1919
1915
1915
1937
1947
1946
1958
1968
1970
1972
1974
1970
1968
1967
1953
1946
1938
1937
1948
1967
1971
1979
1975
1968
1967
1952
1948
1941
1962
1979
1995
1998
1983
1970
1979
1995
2005
2005
2006
1998
1981
1967
1968
1984
1985
1984
1971
1966
1962
1963
1971
1984
1986
1974
1953
1918
1883
1872
1885
1904
1933
1963
1978
1972
1963
1954
1935
1920
1920
1939
1965
1958
1949
1933
1932
1939
1951
1973
1984
1991
1989
1983
1959
1933
1919
1907
1904
1905
1915
1921
1921
1929
1934
1942
1939
1931
1887
1826
1758
1709
1658
1619
1599
1584
1596
1615
1642
1664
1692
1728
1779
1817
1862
1906
1932
1937
1952
1963
1969
1980
1985
2005
2013
2013
2007
2006
2016
2017
2030
2032
2026
2017
2011
2015
2042
2072
2099
2117
2128
2122
2099
2082
2081
2094
2114
2130
2138
2118
2112
2107
2119
2133
2160
2189
2219
2231
2231
2235
2230
2235
2247
2267
2277
2267
2259
2262
2273
2286
2285
2281
2274
2266
2256
2250
2237
2224
2183
2160
2160
2162
2149
2132
2128
2143
2158
2160
2151
2128
2098
2070
2046
2019
2000
1999
1999
2003
2005
2007
1999
1993
1984
1978
1994
2016
2019
2003
1979
1965
1968
1983
1984
1999
2005
2025
2022
2010
2000
2003
2006
2012
2010
2005
2004
1995
1979
1964
1968
1975
1986
1997
2000
2001
1992
1968
1965
1970
1982
1998
2004
2010
2018
2011
2010
2015
2021
2023
2029
2029
2004
1985
1965
1952
1957
1965
1963
1954
1936
1919
1906
1905
1917
1907
1910
1920
1917
1904
1883
1886
1907
1929
1938
1930
1919
1915
1917
1931
1956
1972
1973
1971
1957
1951
1943
1945
1929
1898
1861
1830
1821
1809
1838
1876
1935
1984
2043
2086
2078
2032
1968
1884
1805
1726
1655
1600
1567
1535
1524
1513
1521
1559
1615
1684
1747
1782
1808
1808
1839
1863
1886
1904
1919
1920
1920
1933
1932
1933
1936
1947
1959
1965
1952
1941
1939
1939
1937
1938
1959
1983
1996
2013
2006
1994
1983
1969
2000
2032
2041
2033
2035
2029
2021
2034
2047
2079
2112
2118
2115
2115
2112
2126
2147
2174
2192
2207
2207
2194
2190
2176
2175
2167
2174
2166
2155
2143
2132
2128
2133
2127
2125
2115
2114
2102
2086
2060
2045
2032
2032
2032
2018
1999
1984
1979
1984
1978
1971
1983
1993
1986
1974
1955
1927
1911
1911
1922
1930
1937
1921
1921
1919
1920
1927
1933
1946
1938
1936
1920
1910
1909
1921
1949
1953
1955
1942
1935
1923
1917
1907
1904
1909
1917
1913
1905
1895
1893
1897
1899
1904
1925
1936
1942
1954
1954
1957
1973
1994
2014
2019
2001
1974
1951
1930
1933
1940
1954
1954
1951
1937
1917
1895
1879
1881
1886
1888
1891
1883
1886
1886
1878
1868
1872
1883
1904
1917
1915
1893
1878
1882
1895
1910
1936
1945
1961
1965
1949
1939
1939
1954
1962
1943
1899
1855
1843
1873
1936
2011
2087
2158
2198
2215
2191
2165
2109
2007
1907
1809
1729
1649
1585
1535
1535
1553
1580
1626
1680
1733
1770
1783
1809
1834
1856
1873
1887
1890
1901
1905
1917
1931
1943
1950
1963
1962
1957
1941
1943
1945
1959
1968
1986
1999
1997
1991
2001
2006
2021
2026
2042
2053
2055
2037
2019
2000
2003
2043
2096
2125
2137
2137
2130
2112
2105
2112
2128
2151
2163
2171
2186
2191
2195
2195
2209
2219
2224
2220
2217
2210
2194
2174
2157
2154
2176
2173
2164
2157
2142
2131
2134
2146
2139
2126
2114
2090
2063
2035
2032
2027
2022
2015
1993
1983
1989
1994
2004
2015
2023
2022
2012
1999
1975
1959
1950
1951
1958
1969
1984
1979
1968
1953
1950
1949
1959
1968
1969
1969
1971
1971
1970
1978
1979
1984
1995
1985
1968
1949
1943
1954
1951
1968
1968
1962
1981
1972
1955
1950
1949
1967
1983
1999
2000
2006
2005
2007
2020
2019
2009
2017
2029
2011
2006
2004
2000
2000
2014
2028
2013
1985
1967
1959
1952
1953
1966
1966
1968
1963
1950
1936
1936
1953
1968
1984
2006
2002
2000
2000
1999
2000
1996
1985
1999
1999
2001
2001
1991
1987
1968
1935
1907
1920
1975
2054
2133
2215
2289
2345
2375
2363
2320
2231
2114
1968
1840
1739
1655
1616
1593
1586
1600
1620
1662
1715
1770
1819
1865
1905
1942
1952
1953
1963
1968
1984
1998
2003
2001
2002
2010
2019
2032
2046
2060
2047
2039
2042
2058
2062
2064
2071
2076
2068
2060
2043
2036
2038
2053
2067
2096
2112
2119
2128
2139
2149
2160
2154
2154
2162
2178
2192
2195
2195
2202
2219
2230
2246
2257
2261
2271
2257
2241
2230
2228
2240
2243
2246
2254
2247
2243
2252
2244
2233
2222
2207
2187
2158
2138
2119
2112
2103
2109
2109
2106
2092
2081
2065
2063
2042
2033
2032
2055
2074
2074
2082
2073
2055
2044
2061
2065
2064
2047
2032
2019
2006
2007
2013
2018
2029
2032
2015
1993
1984
1986
1995
2006
2019
2013
2005
2001
2000
2000
2000
1999
1999
1986
1969
1961
1958
1954
1961
1970
1978
1970
1959
1951
1953
1954
1951
1957
1983
2014
2033
2055
2057
2041
2030
2029
2055
2059
2055
2038
2017
1984
1957
1951
1947
1957
1975
1978
1955
1926
1903
1905
1906
1929
1935
1935
1941
1945
1955
1965
1969
1983
2001
2005
2004
2011
2000
