2094
2109
2128
2144
2144
2134
2131
2125
2118
2119
2116
2128
2130
2128
2129
2134
2142
2160
2167
2174
2176
2165
2160
2153
2158
2143
2131
2126
2128
2131
2129
2127
2119
2108
2094
2082
2079
2069
2064
2079
2096
2098
2087
2089
2096
2111
2121
2128
2131
2127
2128
2130
2129
2141
2141
2123
2103
2096
2094
2096
2096
2096
2096
2096
2074
2047
2035
2032
2015
1989
1964
1947
1936
1909
1901
1888
1898
1915
1931
1937
1939
1926
1909
1905
1910
1916
1923
1927
1920
1904
1898
1906
1923
1934
1929
1924
1930
1931
1934
1929
1927
1935
1937
1934
1926
1917
1927
1947
1979
2018
2066
2110
2133
2151
2172
2194
2202
2192
2158
2096
2015
1907
1808
1738
1684
1647
1630
1635
1645
1654
1679
1698
1709
1733
1774
1814
1859
1903
1924
1941
1959
1957
1959
1979
1996
2012
2033
2064
2070
2075
2073
2078
2086
2092
2096
2097
2106
2111
2111
2112
2109
2110
2112
2112
2115
2119
2128
2142
2160
2178
2191
2202
2205
2199
2192
2192
2206
2218
2225
2230
2245
2257
2270
2286
2295
2304
2311
2318
2320
2330
2346
2365
2383
2410
2443
2471
2494
2506
2497
2493
2508
2509
2511
2503
2506
2512
2512
2498
2475
2448
2431
2431
2427
2417
2391
2368
2352
2335
2315
2290
2267
2244
2218
2192
2162
2138
2117
2111
2096
2069
2047
2042
2040
2043
2047
2043
2041
2031
2007
1984
1967
1963
1970
1983
1998
2000
2000
1984
1968
1962
1968
1969
1983
2002
2023
2023
1999
1971
1945
1936
1947
1958
1961
1947
1930
1921
1926
1941
1949
1952
1951
1943
1931
1927
1926
1927
1917
1915
1917
1917
1910
1901
1904
1919
1936
1946
1939
1935
1925
1931
1925
1920
1904
1911
1921
1923
1913
1897
1882
1890
1917
1941
1963
1980
1987
1994
1990
1990
1983
1982
1982
1984
1975
1963
1951
1946
1947
1957
1985
2022
2031
2032
2026
2025
2023
2032
2033
2042
2046
2046
2040
2032
2032
2032
2031
2026
2019
2021
2011
1999
1998
2000
1984
1971
1970
1971
1959
1953
1953
1967
1973
1973
1978
1974
1967
1957
1958
1963
1969
1985
1986
1991
1993
1995
1990
1979
1968
1968
1963
1962
1972
2000
2062
2111
2145
2158
2150
2167
2203
2239
2269
2289
2262
2211
2125
2011
1914
1820
1748
1710
1680
1685
1698
1715
1722
1740
1757
1776
1793
1809
1840
1879
1917
1943
1966
1977
1990
1998
2017
2034
2047
2064
2087
2091
2095
2096
2107
2123
2155
2177
2183
2174
2162
2154
2150
2145
2142
2151
2166
2173
2171
2165
2164
2176
2192
2205
2215
2223
2221
2225
2240
2240
2240
2255
2271
2290
2303
2311
2320
2343
2361
2380
2395
2413
2419
2427
2434
2448
2470
2500
2528
2549
2559
2583
2559
2559
2583
2587
2599
2602
2602
2599
2587
2559
2559
2546
2539
2521
2501
2483
2455
2431
2400
2383
2359
2341
2321
2298
2260
2224
2199
2185
2175
2162
2160
2155
2141
2117
2102
2097
2106
2109
2103
2090
2075
2055
2045
2042
2042
2034
2042
2063
2066
2057
2047
2054
2062
2063
2046
2033
2014
2000
1998
2003
2018
2032
2043
2047
2055
2064
2064
2047
2032
2023
2025
2030
2030
2027
2013
2003
2000
2001
2012
2015
2005
2007
2007
2007
2011
2022
2031
2053
2087
2080
2046
2017
2000
1999
2001
2019
2033
2053
2054
2055
2055
2059
2068
2067
2075
2079
2077
2077
2085
2096
2112
2128
2141
2141
2133
2127
2110
2098
2101
2112
2126
2145
2160
2162
2170
2165
2160
2159
2165
2160
2158
2139
2126
2107
2107
2110
2106
2095
2078
2071
2064
2045
2030
2031
2030
2027
2025
2022
2034
2047
2059
2047
2063
2069
2080
2087
2085
2075
2064
2064
2064
2073
2075
2064
2045
2035
2053
2090
2128
2170
2214
2257
2288
2320
2353
2379
2406
2430
2429
2380
2287
2169
2047
1941
1869
1815
1789
1765
1759
1739
1719
1729
1748
1783
1833
1886
1920
1935
1947
1968
1995
2013
2043
2082
2112
2145
2160
2158
2153
2161
2161
2166
2163
2169
2172
2167
2166
2173
2179
2185
2194
2204
2207
2203
2199
2192
2194
2215
2235
2257
2265
2257
2244
2240
2250
2282
2301
2315
2315
2320
2317
2304
2311
2323
2353
2377
2387
2398
2407
2404
2411
2415
2426
2449
2479
2501
2519
2527
2535
2544
2550
2559
2581
2559
2559
2555
2547
2543
2539
2539
2539
2531
2515
2497
2449
2402
2379
2361
2351
2333
2311
2287
2261
2246
2224
2192
2177
2176
2163
2147
2119
2098
2098
2095
2085
2075
2070
2061
2035
2016
2003
2000
1994
1999
2003
2005
1999
1988
1971
1961
1961
1973
1979
1982
1980
1970
1959
1951
1950
1954
1959
1968
1974
1968
1968
1960
1968
1984
1989
1989
1982
1959
1937
1936
1939
1941
1948
1957
1953
1936
1931
1925
1921
1904
1887
1890
1893
1895
1893
1889
1904
1919
1923
1930
1934
1935
1931
1919
1910
1910
1918
1930
1939
1951
1958
1958
1954
1957
1949
1947
1957
1969
1970
1977
1981
1984
1991
1994
2000
2005
2001
1984
1968
1951
1938
1942
1947
1951
1953
1955
1943
1921
1893
1881
1887
1890
1879
1871
1853
1854
1858
1865
1873
1889
1895
1887
1873
1870
1871
1883
1895
1906
1915
1909
1894
1878
1869
1866
1859
1867
1862
1847
1839
1837
1851
1886
1935
1977
1992
2000
2000
2000
2005
2018
2027
2029
2015
1969
1872
1754
1642
1559
1489
1445
1419
1424
1435
1447
1469
1488
1520
1559
1611
1638
1664
1690
1702
1725
1747
1754
1779
1819
1866
1898
1918
1915
1907
1899
1894
1909
1925
1936
1920
1904
1894
1883
1898
1918
1923
1935
1937
1937
1936
1934
1925
1935
1943
1937
1936
1931
1935
1937
1954
1973
2002
2019
2005
1989
1983
1985
1986
2003
2034
2064
2081
2096
2111
2123
2122
2128
2141
2160
2160
2168
2173
2192
2219
2230
2240
2254
2263
2263
2256
2242
2234
2227
2229
2241
2246
2238
2222
2215
2193
2173
2138
2106
2064
2025
1984
1969
1952
1936
1918
1904
1887
1885
1875
1847
1815
1791
1773
1771
1782
1787
1805
1808
1796
1792
1772
1762
1771
1780
1795
1801
1792
1783
1762
1764
1765
1762
1762
1771
1776
1769
1770
1762
1775
1778
1769
1749
1731
1717
1709
1697
1702
1716
1735
1760
1764
1743
1728
1726
1718
1717
1723
1743
1747
1744
1733
1734
1745
1759
1762
1767
1760
1743
1728
1728
1726
1729
1742
1744
1746
1755
1763
1783
1793
1792
1803
1827
1842
1847
1843
1827
1811
1821
1838
1844
1839
1835
1841
1837
1824
1814
1817
1826
1831
1826
1822
1799
1767
1734
1735
1741
1749
1758
1774
1776
1776
1795
1837
1866
1891
1905
1918
1933
1935
1934
1936
1946
1954
1955
1963
1960
1949
1936
1925
1933
1932
1935
1927
1925
1930
1950
1984
2030
2064
2089
2119
2133
2129
2128
2100
2063
1991
1916
1833
1750
1683
1631
1591
1574
1583
1619
1646
1663
1675
1688
1714
1750
1788
1823
1854
1872
1884
1905
1906
1903
1919
1936
1968
2000
2025
2034
2038
2041
2027
2017
2023
2031
2035
2034
2037
2031
2028
2035
2055
2055
2035
2029
2032
2039
2069
2087
2097
2121
2128
2135
2145
2149
2134
2134
2137
2163
2175
2181
2183
2176
2179
2189
2203
2220
2242
2265
2287
2291
2290
2293
2315
2329
2349
2361
2383
2395
2397
2397
2406
2418
2416
2416
2411
2396
2374
2362
2363
2367
2366
2368
2368
2347
2301
2256
2233
2227
2231
2220
2190
2146
2109
2070
2037
2018
2016
2019
2014
2000
1985
1968
1951
1942
1942
1935
1931
1929
1936
1962
1984
1969
1950
1936
1922
1919
1915
1904
1889
1885
1886
1901
1915
1938
1954
1958
1946
1936
1931
1941
1967
1987
2001
1999
1981
1965
1956
1962
1965
1970
1985
1996
1997
1994
1979
1963
1959
1967
1972
1978
1968
1952
1942
1936
1943
1963
1984
2013
2018
1995
1985
1985
1991
2005
2023
2043
2061
2047
2033
2027
2011
1999
2005
2027
2055
2064
2058
2053
2047
2065
2095
2115
2125
2131
2133
2126
2110
2096
2087
2077
2064
2047
2039
2021
2015
2025
2023
2019
2013
2006
2014
2000
1981
1967
1969
1969
1969
1962
1965
1962
1969
1972
1979
1997
2014
2032
2032
2016
1987
1965
1951
1955
1975
1987
1996
1982
1966
1961
1961
1983
2027
2079
2119
2147
2171
2183
2196
2217
2224
2222
2191
2125
2016
1901
1795
1730
1691
1670
1663
1665
1675
1691
1703
1713
1745
1784
1821
1855
1873
1894
1909
1935
1949
1971
2001
2032
2063
2073
2079
2083
2087
2086
2097
2111
2128
2143
2139
2122
2111
2111
2123
2135
2140
2142
2128
2096
2082
2093
2106
2126
2131
2129
2134
2134
2133
2142
2171
2210
2233
2250
2257
2263
2255
2255
2267
2293
2323
2343
2366
2370
2366
2358
2381
2399
2423
2455
2480
2485
2486
2480
2480
2488
2499
2515
2519
2521
2523
2518
2521
2523
2535
2554
2550
2531
2481
2439
2405
2381
2356
2345
2327
2317
2310
2276
2238
2195
2165
2135
2112
2097
2077
2064
2067
2085
2091
2096
2099
2096
2087
2057
2031
2010
2002
2005
2021
2032
2032
2027
2023
2016
2028
2038
2059
2071
2067
2042
2021
2009
2000
1999
2015
2043
2061
2047
2019
1988
1972
1973
1990
2000
1995
1991
1984
1977
1986
2002
2011
2021
2028
2032
2019
2001
1987
2000
2006
2002
1991
1984
1986
1991
1989
1984
1981
1994
2005
2010
2005
2003
1998
1997
2000
2007
2015
2025
2032
2035
2035
2031
2032
2034
2047
2062
2060
2054
2043
2055
2064
2071
2091
2098
2113
2130
2133
2118
2096
2065
2043
2035
2034
2025
2011
1993
1981
2000
2000
2000
2003
2000
1981
1963
1939
1929
1934
1951
1959
1969
1983
1983
1968
1950
1945
1950
1967
1975
1982
1984
1981
1977
1975
1968
1968
1967
1968
1978
1998
2030
2066
2101
2140
2178
2215
2246
2263
2278
2277
2243
2181
2098
1996
1895
1809
1755
1723
1703
1690
1701
1707
1719
1733
1744
1769
1798
1829
1861
1893
1925
1969
2014
2046
2075
2091
2101
2118
2131
2133
2119
2106
2096
2097
2107
2125
2138
2147
2146
2138
2127
2124
2121
2121
2134
2149
2147
2139
2137
2140
2135
2144
2151
2156
2154
2158
2160
2170
2191
2197
2221
2227
2240
2247
2256
2266
2277
2301
2320
2352
2374
2393
2403
2419
2416
2443
2469
2496
2513
2525
2529
2531
2541
2547
2559
2559
2594
2606
2603
2581
2555
2540
2551
2535
2541
2518
2483
2426
2383
2351
2341
2314
2306
2288
2256
2230
2205
2177
2160
2154
2151
2159
2147
2133
2109
2083
2064
2064
2072
2075
2083
2087
2075
2055
2032
2023
2017
2016
2015
2020
2002
1997
2000
2006
2015
2019
2021
2007
1984
1953
1936
1926
1927
1950
1975
1990
1989
1977
1967
1959
1954
1966
1984
1999
1994
1977
1957
1941
1938
1948
1967
1985
1990
1984
1974
1968
1968
1981
1989
1999
1999
1984
1977
1979
1969
1968
1976
1989
2009
2019
2023
2027
2019
2015
2014
2016
2026
2026
2018
2011
2021
2032
2058
2085
2109
2117
2112
2099
2096
2092
2096
2102
2112
2112
2106
2093
2075
2063
2062
2073
2084
2090
2077
2043
2015
2013
2021
2014
2004
2003
1999
1979
1953
1931
1920
1933
1955
1977
1984
1984
1979
1969
1969
1971
1986
1998
2003
2014
2015
1993
1975
1962
1948
1937
1937
1952
1977
2005
2045
2079
2108
2151
2199
2240
2258
2277
2279
2256
2219
2144
2039
1926
1827
1756
1707
1676
1659
1651
1661
1679
1703
1722
1728
1727
1738
1771
1812
1874
1936
1967
1962
1950
1966
1990
2010
2038
2063
2078
2089
2075
2067
2074
2096
2122
2138
2156
2170
2163
2153
2136
2131
2129
2132
2128
2128
2139
2145
2154
2160
2163
2166
2171
2171
2167
2181
2191
2197
2201
2209
2219
2224
2224
2234
2240
2247
2255
2261
2283
2306
2327
2341
2338
2346
2352
2373
2395
2416
2429
2437
2441
2434
2435
2433
2437
2443
2432
2416
2416
2405
2403
2401
2401
2396
2373
2352
2320
2291
2255
2224
2200
2177
2155
2131
2107
2079
2061
2034
2015
2019
2009
1981
1957
1936
1913
1897
1891
1895
1906
1914
1905
1902
1891
1879
1872
1869
1872
1875
1874
1869
1871
1866
1863
1849
1831
1829
1821
1820
1802
1792
1803
1829
1842
1855
1861
1859
1843
1799
1754
1713
1703
1721
1754
1787
1799
1794
1782
1777
1777
1783
1790
1791
1778
1765
1755
1755
1761
1775
1789
1799
1808
1815
1811
1807
1817
1831
1840
1846
1846
1839
1835
1831
1815
1821
1842
1858
1865
1858
1850
1843
1856
1870
1891
1904
1900
1873
1840
1814
1808
1803
1789
1791
1794
1792
1782
1771
1774
1777
1783
1783
1780
1757
1732
1719
1706
1707
1712
1728
1747
1769
1788
1792
1797
1792
1783
1765
1751
1759
1774
1759
1744
1729
1727
1741
1753
1751
1756
1747
1745
1759
1795
1839
1870
1912
1953
1975
1981
1979
1962
1936
1893
1830
1741
1635
1520
1446
1410
1399
1403
1434
1456
1461
1467
1477
1509
1534
1572
1616
1667
1712
1759
1806
1840
1856
1855
1861
1871
1885
1893
1874
1873
1875
1886
1895
1902
1901
1887
1870
1854
1844
1840
1840
1856
1901
1933
1936
1906
1894
1899
1923
1949
1981
2001
2017
2002
1991
1971
1963
1963
1975
1995
2019
2037
2039
2047
2064
2093
2135
2160
2166
2160
2128
2109
2099
2111
2118
2146
2179
2206
2205
2194
2192
2197
2223
2250
2263
2269
2267
2240
2209
2185
2176
2171
2174
2165
2147
2126
2110
2094
2082
2055
2027
1995
1968
1935
1905
1875
1883
1878
1866
1868
1885
1904
1891
1861
1840
1835
1837
1833
1832
1808
1788
1787
1819
1829
1840
1842
1838
1831
1822
1790
1767
1767
1786
1831
1833
1831
1823
1801
1792
1787
1797
1807
1807
1806
1810
1808
1792
1771
1766
1776
1793
1811
1826
1831
1826
1817
1819
1850
1886
1911
1895
1855
1833
1831
1840
1854
1867
1878
1873
1865
1841
1818
1805
1804
1808
1821
1815
1795
1775
1761
1787
1836
1902
1954
1983
1971
1946
1920
1904
1899
1904
1909
1921
1910
1889
1871
1859
1866
1879
1909
1921
1905
1878
1855
1841
1839
1840
1855
1871
1870
1865
1872
1888
1893
1885
1865
1838
1799
1784
1778
1788
1808
1827
1834
1830
1821
1810
1810
1799
1783
1759
1729
1730
1767
1814
1857
1875
1871
1877
1904
1936
1966
1995
2029
2057
2025
1936
1815
1701
1611
1535
1505
1473
1453
1437
1441
1460
1520
1582
1616
1641
1648
1647
1655
1685
1731
1786
1827
1862
1895
1904
1897
1897
1911
1936
1977
2019
2032
2019
2006
1991
1968
1943
1938
1947
1951
1947
1925
1904
1899
1909
1936
1947
1966
1983
1983
1985
1983
1983
2001
2035
2067
2087
2083
2090
2086
2098
2112
2113
2112
2109
2109
2106
2101
2106
2128
2159
2182
2193
2193
2220
2253
2299
2346
2370
2395
2416
2421
2425
2410
2387
2343
2305
2288
2288
2295
2314
2325
2317
2303
2288
2267
2240
2198
2160
2107
2064
2035
2022
2011
1995
1977
1949
1921
1895
1869
1840
1812
1779
1744
1712
1677
1679
1730
1808
1878
1925
1934
1918
1893
1873
1858
1843
1853
1871
1878
1884
1887
1853
1807
1787
1791
1823
1857
1863
1830
1776
1723
1702
1705
1728
1773
1805
1827
1824
1831
1817
1818
1831
1840
1827
1814
1811
1808
1797
1797
1788
1761
1747
1741
1727
1712
1722
1756
1793
1802
1807
1811
1809
1822
1856
1881
1899
1893
1872
1861
1844
1824
1822
1839
1868
1898
1931
1959
1951
1935
1910
1894
1893
1895
1919
1943
1961
1968
1954
1957
1968
1959
1941
1909
1883
1855
1838
1830
1817
1808
1795
1776
1743
1710
1664
1643
1690
1762
1829
1898
1936
1941
1920
1899
1872
1840
1819
1824
1850
1861
1861
1855
1858
1853
1846
1851
1861
1867
1871
1872
1883
1899
1919
1987
2081
2160
2221
2257
2269
2280
2288
2290
2263
2199
2113
1981
1834
1723
1661
1616
1600
1618
1659
1687
1703
1721
1743
1791
1844
1895
1939
1979
1990
1998
2000
2014
2017
2000
1981
1978
1984
1999
2001
2000
2014
2057
2100
2131
2154
2161
2153
2135
2135
2144
2160
2180
2194
2192
2177
2166
2160
2163
2163
2171
2170
2171
2173
2163
2150
2146
2175
2223
2257
2273
2263
2262
2279
2319
2375
2414
2419
2400
2366
2339
2330
2355
2403
2446
2503
2537
2523
2511
2501
2483
2499
2523
2559
2579
2582
2559
2548
2545
2522
2495
2482
2478
2473
2467
2457
2422
2393
2383
2382
2381
2367
2320
2259
2210
2171
2156
2150
2155
2146
2128
2114
2087
2061
2031
2013
2023
2032
2039
2027
2014
1998
2001
2022
2063
2087
2106
2114
2114
2086
2036
2011
1997
2001
2003
2000
1985
1984
1987
1993
2000
2002
2011
2013
1989
1963
1933
1919
1919
1923
1923
1920
1903
1886
1868
1866
1877
1913
1951
1959
1949
1941
1930
1934
1951
1982
1984
1971
1958
1942
1945
1957
1967
1991
2019
2034
2045
2035
2042
2032
2032
2047
2068
2090
2107
2082
2021
1967
1925
1931
1961
2014
2085
2126
2137
2135
2143
2145
2131
2118
2107
2094
2080
2066
2064
2065
2081
2092
2079
2069
2073
2053
2032
2021
2025
2032
2047
2062
2045
2027
2011
1999
1995
2000
2019
2020
2007
1991
1982
1986
1994
2000
2026
2053
2061
2039
2015
2000
1999
2026
2047
2064
2064
2060
2059
2063
2090
2141
2199
2270
2330
2382
2416
2431
2446
2459
2478
2464
2414
2311
2189
2064
1965
1890
1831
1792
1775
1775
1776
1780
1781
1788
1817
1868
1903
1949
2005
2058
2081
2096
2114
2146
2175
2201
2224
2223
2202
2182
2161
2165
2180
2190
2214
2226
2226
2209
2192
2186
2194
2215
2240
2261
2262
2247
2226
2211
2223
2236
2256
2259
2255
2240
2224
2214
2211
2225
2234
2237
2234
2240
2249
2261
2279
2298
2305
2322
2337
2334
2326
2315
2307
2340
2401
2453
2490
2507
2506
2513
2530
2544
2554
2557
2559
2583
2559
2544
2521
2506
2501
2503
2512
2509
2493
2467
2445
2423
2391
2382
2374
2351
2310
2270
2220
2185
2160
2156
2149
2144
2125
2098
2078
2064
2055
2035
2033
2031
2015
2018
2020
1993
1971
1985
2005
2011
2012
1999
1981
1967
1958
1968
1971
1988
2003
1988
1953
1904
1889
1906
1943
1974
1981
1994
1998
1979
1963
1968
1990
2007
2010
2003
1988
1968
1963
1975
1985
2011
2029
2043
2029
2000
1987
1984
1995
2005
2015
2030
2023
1985
1966
1968
1987
2003
2029
2064
2073
2067
2047
2037
2047
2074
2112
2133
2145
2141
2125
2128
2142
2167
2181
2192
2214
2231
2239
2197
2149
2128
2114
2113
2118
2112
2075
2029
1991
1985
2001
2009
2028
2028
2006
1981
1950
1933
1926
1943
1969
2005
2015
1996
1969
1957
1956
1968
1984
2001
2014
2000
1974
1950
1936
1945
1968
1995
1999
1990
1965
1934
1918
1921
1957
2002
2063
2093
2101
2103
2112
2133
2176
2214
2236
2205
2122
1975
1806
1653
1535
1491
1473
1451
1447
1454
1465
1477
1510
1564
1634
1695
1719
1728
1731
1757
1802
1863
1919
1967
1984
1995
2000
2000
2006
2030
2054
2083
2101
2103
2091
2066
2059
2069
2098
2116
2128
2127
2115
2097
2080
2077
2095
2112
2142
2157
2155
2139
2134
2155
2176
2202
2215
2224
2227
2215
2193
2181
2187
2221
2249
2285
2303
2309
2303
2307
2320
2342
2366
2399
2423
2431
2422
2419
2430
2455
2483
2513
2531
2527
2515
2510
2496
2498
2502
2513
2512
2498
2468
2438
2407
2387
2380
2373
2367
2335
2298
2248
2192
2134
2111
2119
2119
2120
2096
2064
2031
2004
2010
2012
2015
2009
1989
1961
1935
1921
1930
1936
1936
1943
1931
1904
1871
1846
1841
1851
1867
1887
1893
1878
1857
1839
1829
1837
1850
1867
1877
1871
1856
1825
1807
1808
1831
1856
1873
1872
1855
1839
1819
1819
1840
1869
1888
1899
1887
1869
1846
1840
1845
1873
1921
1947
1939
1919
1890
1874
1877
1898
1915
1930
1938
1920
1903
1877
1886
1922
1961
1991
2000
1987
1978
1968
1962
1955
1967
1975
1974
1958
1939
1920
1899
1901
1905
1922
1921
1909
1889
1859
1840
1841
1838
1855
1872
1879
1871
1845
1829
1818
1827
1849
1875
1889
1887
1869
1856
1856
1861
1866
1872
1874
1862
1826
1792
1778
1780
1810
1851
1903
1936
1952
1963
1963
1977
2007
2061
2114
2147
2143
2101
2002
1881
1775
1693
1633
1586
1535
1494
1463
1456
1478
1521
1587
1631
1667
1686
1706
1726
1750
1793
1850
1904
1935
1943
1936
1919
1911
1929
1967
2004
2033
2039
2025
1999
1983
1984
2005
2033
2061
2062
2042
2021
2014
2015
2034
2066
2091
2103
2101
2093
2094
2090
2096
2122
2133
2141
2135
2119
2106
2096
2112
2141
2182
2206
2224
2227
2231
2241
2263
2303
2332
2359
2371
2382
2382
2383
2391
2414
2448
2480
2507
2511
2501
2479
2473
2476
2496
2525
2545
2546
2515
2479
2445
2419
2399
2391
2384
2368
2334
2288
2251
2215
2203
2187
2191
2191
2165
2117
2068
2032
2020
2029
2034
2031
2001
1979
1942
1911
1899
1909
1930
1941
1952
1938
1911
1887
1873
1894
1915
1936
1942
1936
1915
1892
1883
1904
1932
1957
1978
1969
1943
1910
1879
1866
1872
1895
1916
1917
1901
1871
1851
1840
1855
1879
1909
1925
1920
1891
1867
1852
1866
1895
1910
1917
1910
1890
1872
1869
1879
1915
1947
1974
1970
1952
1921
1904
1904
1926
1963
2000
2019
2013
1989
1967
1961
1967
1984
2001
2017
2002
1970
1937
1919
1915
1924
1945
1953
1945
1922
1895
1872
1856
1847
1858
1872
1884
1875
1862
1840
1818
1824
1853
1885
1904
1904
1891
1871
1850
1853
1872
1904
1923
1927
1920
1903
1869
1835
1830
1839
1856
1877
1904
1921
1946
1958
1991
2057
2096
2147
2163
2160
2130
2095
2033
1963
1863
1767
1666
1578
1499
1449
1426
1439
1476
1514
1535
1569
1583
1585
1606
1643
1697
1758
1810
1850
1862
1856
1849
1871
1903
1949
1983
2000
1993
1966
1943
1935
1951
1978
1999
2003
1997
1982
1970
1972
1987
2018
2047
2086
2087
2069
2034
2012
2004
2027
2057
2081
2093
2091
2079
2066
2074
2098
2131
2163
2182
2182
2171
2163
2165
2187
2218
2253
2279
2301
2305
2305
2318
2343
2379
2417
2448
2459
2459
2448
2433
2432
2447
2469
2495
2506
2495
2459
2419
2399
2388
2387
2394
2393
2371
2335
2285
2240
2202
2177
2160
2144
2118
2077
2030
1995
1971
1969
1987
2004
2010
1990
1962
1929
1911
1904
1923
1946
1951
1937
1911
1896
1879
1887
1901
1917
1923
1921
1899
1872
1853
1847
1857
1870
1881
1883
1879
1861
1850
1842
1856
1872
1902
1913
1909
1899
1883
1872
1857
1857
1861
1879
1904
1911
1899
1871
1853
1846
1859
1887
1911
1909
1901
1883
1872
1877
1897
1919
1953
1966
1947
1911
1881
1882
1902
1935
1983
2019
2027
2002
1970
1968
1994
2029
2065
2080
2066
2031
2000
1981
1996
2017
2046
2047
2018
1975
1936
1925
1921
1925
1931
1898
1840
1781
1745
1754
1799
1861
1904
1907
1889
1877
1872
1866
1862
1878
1894
1904
1910
1917
1926
1931
1947
1953
1933
1899
1870
1856
1859
1890
1941
2017
2094
2134
2139
2123
2128
2143
2190
2242
2284
2288
2227
2103
1951
1815
1697
1616
1557
1515
1488
1483
1498
1510
1531
1575
1631
1697
1764
1821
1862
1877
1888
1918
1978
2027
2070
2102
2111
2096
2064
2023
2019
2038
2081
2111
2139
2127
2091
2037
2009
2015
2069
2135
2190
2211
2209
2199
2192
2202
2221
2243
2270
2284
2287
2283
2267
2256
2267
2287
2303
2306
2302
2296
2290
2304
2341
2370
2391
2406
2399
2391
2411
2447
2496
2542
2593
2633
2645
2655
2654
2668
2685
2717
2759
2787
2797
2783
2768
2747
2741
2750
2759
2762
2747
2719
2675
2640
2611
2597
2594
2597
2587
2539
2467
2394
2331
2301
2302
2329
2355
2375
2376
2335
2288
2247
2235
2233
2241
2246
2239
2210
2180
2160
2151
2161
2177
2194
2204
2192
2171
2144
2128
2137
2156
2171
2171
2155
2128
2105
2095
2100
2128
2158
2186
2195
2193
2183
2169
2170
2182
2207
2236
2238
2224
2200
2186
2182
2190
2203
2218
2224
2214
2195
2179
2165
2163
2176
2196
2224
2250
2253
2229
2191
2173
2175
2187
2212
2234
2257
2279
2288
2289
2297
2303
2320
2326
2314
2298
2286
2275
2282
2294
2318
2325
2316
2289
2262
2239
2224
2225
2243
2255
2247
2224
2192
2160
2143
2134
2146
2163
2176
2174
2163
2158
2146
2145
2151
2171
2171
2160
2139
2123
2111
2114
2140
2183
2218
2226
2222
2210
2193
2176
2176
2192
2231
2275
2303
2309
2311
2327
2347
2371
2405
2431
2437
2422
2361
2257
2135
2003
1890
1794
1726
1674
1644
1626
1648
1686
1744
1810
1867
1897
1906
1923
1948
1987
2041
2102
2145
2167
2176
2177
2192
2214
2237
2261
2277
2273
2271
2265
2261
2271
2295
2320
2332
2333
2323
2310
2298
2295
2290
2320
2333
2342
2335
2323
2310
2297
2307
2319
2347
2369
2383
2384
2375
2370
2381
2406
2436
2475
2502
2511
2503
2502
2513
2541
2585
2619
2629
2640
2631
2623
2623
2641
2678
2714
2740
2753
2739
2723
2705
2699
2705
2723
2736
2733
2711
2686
2661
2641
2649
2656
2658
2657
2645
2608
2554
2500
2467
2455
2454
2449
2428
2398
2362
2325
2313
2313
2322
2334
2320
2286
2240
2198
2166
2160
2173
2190
2192
2186
2166
2146
2131
2140
2165
2199
2219
2203
2181
2158
2139
2131
2135
2149
2157
2157
2139
2119
2093
2083
2096
2111
2124
2133
2144
2133
2108
2087
2083
2096
2128
2165
2170
2147
2123
2103
2105
2128
2163
2190
2192
2185
2155
2128
2118
2127
2147
2176
2192
2187
2171
2160
2158
2176
2210
2237
2255
2247
2222
2192
2160
2139
2135
2145
2150
2149
2128
2097
2070
2044
2046
2064
2065
2059
2029
2002
1990
1987
1990
2003
2013
2010
2000
1981
1962
1946
1936
1953
1983
2006
2000
1993
1974
1969
1968
1984
2002
2024
2028
2000
1965
1943
1957
1985
2032
2085
2114
2128
2128
2128
2128
2151
2175
2195
2185
2121
1998
1855
1725
1630
1573
1535
1535
1535
1535
1562
1579
1604
1643
1684
1729
1759
1786
1797
1792
1802
1845
1901
1947
1995
2019
2019
2007
2001
2017
2043
2064
2064
2063
2041
2022
1999
2003
2015
2035
2063
2075
2077
2065
2045
2023
2022
2037
2068
2102
2107
2103
2098
2099
2110
2131
2163
2179
2181
2176
2167
2156
2159
2177
2209
2241
2266
2265
2256
2248
2256
2287
2331
2371
2405
2423
2417
2406
2395
2395
2418
2445
2476
2485
2483
2465
2448
2438
2432
2449
2466
2462
2438
2399
2362
2332
2323
2333
2337
2321
2288
2225
2157
2103
2092
2090
2085
2077
2047
2017
1983
1962
1958
1968
1994
2013
2026
2014
1984
1948
1926
1926
1940
1968
1975
1963
1936
1909
1888
1895
1922
1962
1987
1985
1959
1922
1885
1866
1868
1897
1935
1961
1966
1946
1925
1904
1899
1898
1907
1925
1930
1917
1892
1872
1881
1907
1941
1986
2014
2004
1982
1951
1936
1953
1974
1989
1985
1979
1965
1938
1937
1951
1974
2004
2026
2030
2010
1989
1978
1982
2003
2032
2042
2031
2007
1983
1949
1921
1920
1926
1937
1943
1936
1914
1902
1901
1910
1927
1942
1946
1927
1889
1843
1808
1808
1842
1888
1925
1950
1955
1935
1904
1890
1892
1914
1936
1936
1935
1918
1905
1905
1905
1907
1907
1906
1904
1903
1904
1931
1968
2005
2045
2088
2112
2125
2121
2118
2112
2092
2037
1957
1858
1749
1654
1579
1535
1522
1535
1573
1588
1597
1587
1592
1615
1653
1708
1757
1805
1847
1868
1872
1874
1879
1915
1959
1998
2023
2017
2003
1983
1981
1986
2000
2025
2038
2035
2029
2014
2003
2012
2042
2066
2068
2062
2039
2021
2003
2003
2015
2038
2076
2093
2095
2081
2070
2064
2075
2105
2141
2166
2173
2167
2161
2171
2192
2225
2253
2271
2288
2299
2302
2303
2305
2329
2365
2399
2426
2432
2419
2414
2419
2432
2453
2475
2482
2471
2437
2416
2397
2390
2394
2398
2395
2381
2352
2305
2259
2227
2210
2208
2206
2192
2159
2101
2058
2031
2029
2035
2033
2019
1991
1956
1909
1875
1867
1873
1904
1923
1921
1902
1881
1865
1869
1877
1910
1927
1939
1925
1897
1858
1842
1842
1856
1872
1882
1872
1858
1840
1836
1835
1855
1871
1887
1885
1872
1856
1842
1842
1847
1866
1882
1883
1869
1845
1829
1824
1837
1867
1899
1919
1920
1905
1889
1871
1876
1903
1926
1931
1918
1893
1870
1856
1847
1858
1890
1923
1946
1949
1939
1934
1942
1967
1997
2014
2015
2000
1969
1937
1920
1921
1936
1945
1937
1919
1895
1875
1873
1875
1872
1874
1875
1872
1855
1838
1814
1803
1808
1827
1846
1858
1862
1850
1839
1825
1824
1839
1852
1867
1867
1857
1836
1815
1822
1831
1842
1849
1837
1820
1808
1813
1847
1904
1975
2046
2112
2153
2172
2185
2194
2213
2207
2161
2068
1931
1787
1664
1584
1525
1495
1478
1477
1473
1467
1472
1488
1519
1579
1649
1709
1741
1751
1753
1755
1776
1813
1869
1914
1949
1955
1939
1925
1915
1918
1933
1952
1979
1984
1979
1966
1953
1957
1969
1991
2013
2034
2035
2021
2001
2006
2017
2037
2064
2077
2083
2066
2058
2045
2064
2085
2112
2128
2144
2143
2143
2135
2142
2163
2192
2222
2251
2259
2263
2267
2285
2306
2345
2374
2399
2416
2416
2407
2407
2419
2443
2479
2499
2507
2490
2469
2452
2449
2461
2480
2487
2477
2448
2405
2362
2323
2298
2288
2286
2279
2253
2213
2174
2129
2095
2075
2061
2045
2031
2005
1969
1938
1927
1924
1933
1943
1936
1917
1885
1854
1840
1853
1871
1885
1887
1881
1859
1835
1814
1815
1834
1851
1855
1850
1837
1827
1810
1815
1819
1836
1840
1831
1814
1808
1802
1806
1824
1845
1863
1872
1862
1843
1817
1805
1808
1817
1831
1837
1826
1810
1799
1783
1787
1813
1844
1879
1901
1898
1884
1872
1872
1889
1903
1904
1895
1872
1855
1855
1867
1894
1920
1953
1966
1958
1936
1921
1919
1920
1939
1958
1962
1953
1931
1903
1878
1869
1867
1875
1889
1895
1877
1852
1834
1821
1813
1826
1840
1843
1831
1805
1779
1771
1776
1795
1821
1839
1839
1834
1813
1797
1792
1803
1822
1840
1854
1847
1825
1797
1777
1774
1779
1805
1841
1877
1908
1931
1965
2012
2079
2145
2202
2256
2287
2295
2288
2235
2147
2047
1939
1815
1712
1613
1521
1467
1449
1454
1479
1518
1535
1571
1583
1598
1629
1678
1735
1785
1810
1817
1822
1830
1851
1886
1919
1951
1968
1968
1959
1937
1933
1939
1975
2010
2023
2021
2011
1993
1993
2007
2035
2064
2073
2069
2063
2055
2051
2047
2067
2089
2117
2126
2133
2117
2100
2099
2117
2147
2177
2198
2197
2195
2192
2203
2226
2258
2303
2343
2371
2368
2352
2347
2353
2375
2416
2451
2475
2478
2465
2448
2447
2462
2495
2511
2512
2496
2477
2459
2442
2438
2449
2458
2455
2437
2395
2353
2317
2298
2296
2289
2273
2237
2185
2128
2081
2047
2039
2059
2066
2064
2039
2007
1978
1957
1946
1961
1975
1984
1983
1967
1936
1901
1883
1881
1904
1937
1945
1931
1903
1874
1863
1871
1889
1904
1915
1913
1890
1858
1845
1849
1867
1879
1887
1874
1859
1843
1838
1840
1871
1898
1909
1905
1907
1878
1837
1811
1817
1849
1877
1886
1883
1872
1863
1859
1872
1900
1911
1916
1918
1904
1882
1867
1872
1895
1917
1938
1955
1949
1929
1915
1919
1945
1979
2003
2027
2015
1985
1958
1939
1936
1936
1949
1959
1947
1921
1883
1855
1844
1841
1853
1865
1863
1852
1829
1807
1811
1834
1862
1879
1879
1859
1829
1808
1795
1798
1808
1829
1841
1853
1847
1842
1841
1841
1840
1846
1861
1862
1833
1814
1810
1832
1875
1930
1983
2010
2020
2031
2037
2066
2098
2128
2135
2087
1978
1839
1699
1579
1513
1485
1468
1456
1450
1450
1456
1470
1503
1553
1610
1669
1709
1721
1738
1761
1795
1853
1904
1943
1972
1984
1979
1961
1951
1963
1981
2001
2018
2015
2009
2009
2011
2005
2005
2025
2047
2059
2054
2030
2015
2015
2037
2065
2101
2128
2128
2106
2076
2064
2064
2092
2127
2160
2173
2173
2162
2156
2157
2173
2201
2225
2241
2247
2242
2247
2257
2286
2320
2352
2378
2391
2391
2389
2393
2399
2418
2442
2461
2467
2452
2431
2415
2416
2431
2448
2450
2438
2401
2352
2304
2264
2256
2256
2246
2238
2215
2179
2143
2107
2083
2065
2060
2054
2032
1996
1959
1923
1913
1920
1941
1957
1951
1921
1883
1855
1843
1837
1840
1851
1856
1842
1821
1798
1793
1807
1826
1853
1870
1870
1853
1833
1821
1818
1837
1856
1877
1886
1866
1841
1817
1809
1821
1838
1840
1838
1822
1805
1785
1785
1805
1834
1867
1882
1878
1868
1845
1834
1847
1871
1893
1908
1904
1890
1871
1862
1861
1873
1901
1915
1921
1914
1909
1905
1920
1923
1959
1975
1986
1982
1951
1917
1884
1873
1877
1888
1899
1895
1880
1855
1826
1822
1843
1866
1876
1861
1837
1810
1792
1775
1763
1770
1799
1830
1836
1831
1819
1809
1809
1833
1855
1872
1872
1861
1851
1838
1831
1841
1856
1872
1872
1851
1809
1791
1808
1831
1884
1933
1966
1984
1984
2000
2016
2058
2096
2096
2064
1979
1855
1717
1609
1535
1513
1520
1533
1531
1505
1497
1495
1516
1563
1619
1674
1714
1742
1748
1754
1781
1827
1882
1936
1968
1968
1957
1941
1940
1964
1998
2026
2046
2041
2021
1990
1968
1967
1978
2005
2023
2032
2028
2002
1983
1974
1991
2027
2064
2097
2114
2114
2096
2071
2069
2095
2122
2143
2147
2135
2128
2112
2112
2130
2160
2191
2206
2209
2209
2209
2223
2253
2288
2330
2363
2374
2368
2359
2368
2386
2403
2426
2453
2465
2448
2410
2379
2366
2373
2390
2405
2399
2375
2343
2304
2275
2255
2247
2248
2242
2224
2192
2145
2102
2074
2061
2061
2061
2055
2043
1997
1973
1963
1963
1966
1984
2001
1998
1977
1953
1937
1943
1968
1995
1999
1978
1950
1922
1904
1903
1925
1942
1962
1953
1943
1920
1911
1910
1924
1951
1965
1971
1965
1942
1922
1908
1920
1947
1968
1972
1968
1943
1921
1902
1906
1927
1954
1970
1969
1953
1940
1932
1925
1943
1977
1995
2007
1999
1983
1967
1967
1979
2001
2039
2066
2074
2059
2029
2023
2063
2087
2097
2097
2093
2078
2034
2003
1993
2000
2033
2059
2065
2047
2021
2000
1994
1998
2001
2014
2010
1997
1966
1935
1921
1930
1954
1985
2000
1988
1975
1955
1941
1946
1973
1997
2004
2005
1990
1965
1937
1933
1954
1977
2005
2006
1983
1950
1921
1923
1958
2014
2075
2122
2144
2159
2165
2182
2209
2243
2273
2288
2256
2163
2035
1906
1792
1728
1698
1681
1678
1678
1675
1680
1685
1709
1751
1808
1863
1903
1911
1920
1933
1967
2004
2047
2084
2096
2081
2065
2058
2063
2085
2112
2131
2139
2131
2113
2091
2074
2078
2096
2119
2146
2151
2143
2126
2119
2122
2142
2175
2197
2211
2201
2175
2151
2153
2171
2195
2225
2245
2253
2251
2239
2239
2255
2279
2313
2330
2336
2328
2315
2309
2337
2369
2414
2446
2462
2466
2459
2451
2467
2487
2517
2549
2559
2551
2542
2521
2513
2522
2543
2551
2545
2535
2502
2459
2430
2416
2416
2417
2410
2384
2340
2293
2258
2226
2209
2201
2195
2193
2176
2147
2112
2094
2091
2098
2112
2123
2115
2097
2074
2053
2058
2087
2125
2134
2127
2096
2064
2026
2011
2019
2043
2064
2075
2064
2034
2002
2002
2007
2026
2065
2086
2083
2057
2027
2005
2000
2018
2061
2091
2090
2064
2015
1991
1978
1985
2011
2037
2054
2035
2015
1990
1986
2000
2031
2059
2064
2056
2032
2016
2014
2025
2045
2075
2110
2128
2117
2096
2068
2047
2056
2069
2087
2096
2089
2068
2063
2064
2084
2113
2141
2149
2145
2139
2122
2115
2119
2143
2151
2151
2142
2118
2090
2070
2063
2064
2093
2111
2112
2096
2059
2023
2013
2016
2021
2032
2031
2016
1997
1972
1968
1984
2011
2035
2057
2057
2039
2015
2005
2016
2042
2064
2082
2070
2043
2010
1985
1975
1991
2001
2032
2058
2075
2087
2110
2133
2177
2233
2304
2367
2399
2410
2393
2345
2259
2160
2063
1978
1887
1805
1728
1677
1663
1676
1717
1773
1805
1807
1803
1808
1832
1857
1895
1941
1973
1990
1983
1975
1975
2000
2032
2083
2111
2116
2102
2069
2039
2031
2043
2071
2095
2106
2102
2094
2090
2090
2096
2125
2145
2160
2161
2149
2131
2128
2142
2164
2203
2232
2235
2219
2218
2224
2237
2245
2272
2289
2304
2304
2297
2289
2292
2311
2345
2385
2416
2430
2432
2427
2423
2446
2481
2519
2559
2559
2581
2559
2557
2559
2583
2595
2609
2608
2600
2559
2546
2531
2516
2518
2527
2531
2512
2475
2416
2369
2334
2315
2307
2303
2286
2231
2171
2114
2084
2069
2079
2087
2090
2064
2025
1997
1991
2000
2015
2031
2032
2027
2009
1986
1969
1965
1970
1984
1989
1982
1955
1931
1908
1904
1920
1947
1976
1997
1992
1964
1927
1910
1918
1936
1962
1968
1963
1943
1935
1909
1906
1917
1939
1955
1951
1933
1920
1919
1935
1945
1958
1968
1961
1938
1920
1889
1885
1901
1920
1943
1968
1943
1934
1909
1904
1909
1921
1943
1957
1953
1942
1925
1914
1919
1934
1962
1993
2000
2001
2000
2001
1993
1987
1989
2000
2002
1989
1967
1941
1947
1968
2000
2032
2047
2057
2043
2039
2025
2019
2027
2058
2083
2089
2064
2029
1987
1970
1973
1983
1991
1989
1979
1956
1927
1907
1909
1922
1940
1955
1947
1926
1907
1904
1906
1924
1953
1983
1986
1977
1952
1934
1929
1929
1940
1952
1954
1936
1920
1901
1882
1882
1895
1922
1968
1998
2029
2064
2101
2139
2189
2238
2283
2311
2327
2310
2261
2192
2094
1982
1867
1767
1679
1599
1535
1503
1509
1535
1584
1617
1652
1680
1693
1716
1746
1801
1854
1890
1915
1927
1930
1936
1964
1989
2015
2030
2032
2023
2005
1989
1979
1995
2015
2038
2063
2064
2046
2033
2032
2032
2063
2091
2111
2118
2111
2099
2078
2083
2099
2122
2134
2146
2143
2128
2121
2126
2139
2164
2191
2208
2222
2224
2230
2238
2252
2285
2326
2357
2368
2366
2361
2371
2385
2422
2461
2494
2513
2518
2514
2512
2527
2542
2559
2595
2607
2601
2578
2546
2526
2527
2528
2532
2514
2495
2448
2399
2346
2314
2295
2288
2274
2245
2208
2171
2127
2078
2047
2038
2030
2007
1990
1968
1939
1931
1932
1936
1943
1947
1937
1920
1903
1882
1873
1884
1902
1909
1911
1895
1861
1837
1821
1825
1842
1872
1888
1878
1857
1836
1817
1819
1837
1847
1854
1841
1821
1794
1767
1769
1781
1807
1830
1846
1839
1815
1803
1792
1796
1815
1827
1839
1834
1809
1788
1769
1770
1791
1823
1843
1840
1819
1791
1774
1771
1788
1805
1815
1821
1809
1791
1771
1769
1775
1801
1824
1834
1829
1819
1805
1803
1814
1841
1865
1885
1883
1872
1856
1846
1850
1866
1887
1901
1904
1897
1871
1858
1869
1887
1919
1945
1959
1946
1915
1886
1871
1874
1886
1895
1906
1895
1866
1838
1813
1808
1813
1831
1842
1835
1806
1785
1757
1751
1769
1795
1822
1829
1813
1791
1773
1776
1788
1806
1821
1833
1820
1794
1775
1762
1767
1787
1806
1814
1803
1789
1771
1776
1801
1843
1904
1953
1984
2002
2019
2032
2061
2089
2102
2096
2031
1921
1773
1622
1509
1437
1392
1374
1383
1396
1403
1398
1407
1420
1456
1511
1578
1617
1642
1655
1683
1721
1759
1800
1825
1857
1872
1865
1855
1844
1856
1877
1910
1920
1922
1920
1909
1903
1907
1925
1947
1968
1977
1972
1963
1959
1962
1974
1986
2007
2028
2032
2019
1998
1990
2000
2030
2064
2075
2080
2073
2064
2066
2087
2115
2148
2177
2197
2203
2202
2207
2231
2256
2288
2318
2352
2353
2350
2337
2337
2355
2389
2427
2434
2431
2427
2418
2405
2410
2416
2433
2434
2419
2391
2352
2315
2301
2291
2295
2290
2268
2229
2183
2139
2099
2077
2064
2064
2047
2031
1996
1955
1920
1904
1904
1918
1920
1918
1904
1882
1870
1865
1872
1890
1887
1877
1860
1836
1812
1807
1815
1835
1845
1851
1851
1837
1810
1801
1808
1822
1849
1865
1854
1834
1806
1791
1793
1806
1815
1830
1831
1816
1791
1767
1767
1776
1798
1830
1856
1840
1812
1778
1755
1757
1776
1807
1830
1827
1809
1787
1776
1777
1802
1831
1855
1861
1856
1840
1834
1833
1840
1855
1871
1877
1874
1862
1849
1840
1846
1857
1870
1879
1884
1876
1872
1867
1871
1872
1877
1895
1906
1904
1889
1872
1863
1873
1904
1934
1953
1955
1934
1919
1908
1917
1927
1937
1947
1939
1935
1907
1872
1856
1858
1871
1883
1875
1870
1861
1851
1835
1839
1862
1872
1893
1890
1872
1855
1842
1845
1856
1869
1885
1886
1873
1862
1858
1871
1873
1887
1882
1858
1829
1799
1792
1811
1865
1933
1991
2021
2021
2018
2022
2031
2045
2077
2081
2054
1969
1857
1727
1611
1522
1485
1482
1483
1489
1488
1483
1488
1514
1563
1619
1670
1703
1719
1731
1754
1788
1827
1872
1915
1943
1942
1949
1957
1968
1986
1999
2011
2038
2019
2012
1995
1989
1997
2010
2032
2059
2058
2052
2029
2018
2021
2026
2046
2071
2086
2079
2058
2036
2035
2057
2079
2111
2138
2151
2155
2150
2155
2162
2188
2213
2234
2240
2227
2219
2207
2226
2269
2303
2326
2354
2364
2362
2355
2349
2377
2410
2447
2479
2467
2451
2429
2411
2407
2413
2419
2435
2439
2426
2393
2363
2334
2313
2313
2298
2288
2259
2221
2170
2130
2103
2094
2095
2094
2067
2031
1991
1956
1929
1924
1936
1950
1959
1943
1917
1893
1882
1877
1891
1914
1926
1915
1895
1882
1862
1861
1872
1883
1898
1885
1865
1840
1827
1843
1857
1875
1893
1901
1887
1866
1840
1829
1836
1856
1877
1889
1892
1885
1854
1835
1835
1846
1871
1889
1892
1872
1827
1782
1760
1771
1806
1851
1883
1904
1886
1862
1843
1838
1840
1835
1814
1808
1795
1794
1808
1831
1840
1841
1849
1862
1867
1872
1871
1874
1899
1951
1982
1958
1923
1893
1872
1875
1902
1936
1963
1970
1947
1881
1806
1762
1789
1859
1949
2046
2109
2113
2099
2066
2037
2025
2023
2021
1989
1933
1879
1843
1847
1886
1921
1967
2015
2024
2015
1998
1991
1989
1990
2009
2016
2003
1977
1959
1989
2016
2057
2114
2128
2047
1921
1808
1728
1726
1780
1845
1871
1871
1875
1889
1901
1911
1917
1923
1939
1972
2015
2045
2071
2081
2071
2005
1871
1694
1517
1415
1387
1392
1408
1433
1473
1535
1625
1681
1713
1733
1729
1723
1731
1764
1812
1873
1934
1954
1959
1968
1966
1947
1920
1887
1874
1883
1901
1920
1943
2000
2083
2123
2103
2055
2007
1997
2016
2035
2064
2087
2093
2037
1968
1922
1914
1972
2070
2107
2047
1971
1920
1923
2029
2187
2322
2413
2449
2451
2421
2367
2316
2282
2256
2246
2256
2279
2302
2348
2395
2448
2470
2469
2455
2448
2439
2455
2496
2558
2639
2699
2703
2624
2502
2391
2328
2339
2422
2583
2726
2791
2810
2788
2722
2622
2498
2402
2355
2384
2451
2470
2421
2351
2262
2166
2055
1927
1842
1835
1883
1978
2085
2192
2258
2299
2279
2186
2041
1893
1777
1750
1854
1979
2067
2110
2128
2113
2083
2064
2059
2045
2018
1951
1867
1799
1771
1776
1843
1917
1973
2015
2012
1934
1818
1686
1679
1815
1942
2043
2094
2094
2027
1974
1949
1953
1957
1929
1826
1667
1557
1571
1659
1767
1840
1843
1776
1675
1573
1568
1646
1754
1882
1978
2021
2002
1939
1862
1804
1797
1859
1886
1891
1901
1903
1891
1841
1810
1808
1819
1853
1873
1903
1907
1903
1904
1922
1953
1969
1974
1962
1933
1913
1911
1922
1870
1731
1557
1480
1621
1794
1883
1948
2016
2057
2034
2014
2013
1968
1901
1835
1791
1758
1773
1789
1763
1724
1756
1817
1876
1923
1938
1947
1939
1911
1877
1840
1779
1748
1756
1767
1791
1799
1791
1741
1666
1611
1593
1648
1712
1745
1744
1737
1749
1831
1953
2084
2183
2247
2288
2272
2176
2014
1855
1776
1746
1728
1671
1610
1527
1474
1471
1456
1421
1375
1354
1365
1395
1451
1506
1584
1642
1648
1601
1569
1535
1567
1636
1685
1715
1738
1770
1808
1820
1808
1818
1837
1840
1841
1823
1809
1839
1884
1910
1923
1946
1970
1936
1839
1717
1681
1755
1846
1907
1943
1982
1997
1987
1946
1934
1936
1958
2030
2112
2165
2190
2175
2096
2007
1947
1968
2055
2131
2186
2250
2286
2311
2345
2385
2416
2413
2401
2396
2415
2430
2425
2399
2367
2368
2397
2414
2427
2455
2475
2496
2503
2494
2486
2458
2421
2411
2420
2435
2439
2418
2368
2284
2149
2004
1875
1845
1858
1922
1990
2025
2000
1969
1931
1905
1899
1884
1841
1808
1773
1728
1701
1702
1712
1702
1697
1707
1711
1711
1697
1654
1605
1600
1621
1649
1647
1614
1591
1610
1647
1673
1683
1667
1639
1589
1535
1505
1481
1458
1456
1489
1535
1622
1700
1726
1731
1729
1696
1642
1579
1554
1608
1639
1659
1667
1668
1649
1657
1664
1656
1629
1579
1535
1567
1616
1666
1689
1687
1649
1594
1553
1535
1565
1591
1631
1712
1776
1794
1776
1729
1649
1582
1574
1616
1682
1767
1819
1825
1841
1888
1923
1927
1893
1852
1814
1767
1783
1814
1815
1806
1784
1779
1778
1785
1802
1834
1903
1922
1825
1727
1682
1715
1758
1792
1834
1863
1879
1855
1791
1735
1721
1766
1820
1872
1873
1776
1659
1618
1744
1895
2018
2085
2111
2096
2034
1971
1917
1887
1915
1957
1930
1854
1810
1927
2176
2389
2545
2644
2683
2670
2559
2395
2193
2011
1867
1782
1731
1689
1651
1654
1680
1697
1719
1766
1808
1842
1862
1835
1808
1819
1866
1914
1956
1995
2022
2030
2073
2123
2179
2242
2288
2297
2233
2179
2186
2203
2214
2226
2266
2386
2487
2529
2498
2427
2371
2355
2364
2379
2389
2410
2416
2393
2357
2345
2371
2400
2427
2458
2459
2433
2410
2393
2403
2455
2517
2579
2629
2666
2661
2641
2612
2590
2598
2650
2709
2751
2754
2739
2729
2750
2793
2835
2862
2890
2926
2941
2927
2881
2838
2827
2855
2899
2907
2891
2878
2879
2879
2877
2864
2858
2817
2750
2685
2621
2585
2559
2551
2535
2503
2455
2397
2352
2327
2320
2343
2368
2370
2325
2263
2217
2191
2181
2192
2227
2267
2285
2274
2253
2234
2224
2221
2233
2254
2241
2213
2197
2192
2185
2192
2215
2235
2246
2224
2181
2166
2170
2195
2226
2274
2306
2283
2209
2117
2035
2000
2010
2057
2093
2103
2086
2046
2021
2022
2059
2097
2130
2159
2166
2149
2106
2058
2043
2080
2112
2127
2119
2096
2091
2116
2154
2194
2222
2220
2160
2092
2069
2081
2142
2203
2247
2256
2241
2224
2190
2162
2155
2149
2175
2215
2230
2217
2183
2134
2096
2070
2070
2093
2111
2118
2090
2036
2002
2009
2032
2064
2083
2065
2032
1978
1921
1904
1915
1951
2003
2059
2068
2053
2032
2032
2059
2084
2111
2123
2109
2068
2021
2010
1999
1969
1918
1872
1839
1807
1795
1803
1839
1895
1947
2015
2079
2105
2110
2096
2071
2032
1985
1913
1791
1653
1525
1419
1378
1398
1436
1488
1527
1535
1535
1516
1499
1493
1513
1570
1634
1669
1699
1707
1711
1733
1778
1814
1849
1871
1879
1882
1871
1867
1865
1885
1904
1922
1938
1963
1947
1907
1893
1904
1923
1942
1933
1919
1911
1902
1904
1942
1991
2046
2084
2096
2095
2081
2063
2055
2057
2063
2063
2047
2058
2064
2079
2104
2139
2187
2239
2261
2314
2367
2373
2363
2362
2373
2390
2431
2477
2518
2538
2531
2519
2523
2543
2559
2559
2526
2483
2447
2416
2403
2409
2429
2451
2471
2481
2459
2430
2410
2401
2391
2385
2350
2257
2126
2037
2018
2034
2069
2110
2122
2110
2079
2039
1996
1955
1920
1904
1878
1851
1869
1872
1872
1907
1950
2004
2085
2139
2114
2042
1995
1972
1959
1965
1977
1985
1971
1969
1954
1936
1935
1905
1903
1911
1910
1904
1898
1887
1886
1879
1872
1851
1808
1780
1767
1808
1872
1909
1936
1946
1926
1905
1904
1933
1966
2000
2023
2032
2031
2023
2000
1987
1973
1971
1969
1968
1968
1965
1962
1957
1968
1973
1973
1968
1966
1959
1937
1912
1882
1873
1888
1921
1962
1982
1975
1958
1931
1905
1917
1930
1950
1951
1936
1894
1840
1797
1770
1749
1744
1750
1756
1744
1723
1718
1732
1748
1769
1755
1719
1697
1664
1641
1634
1648
1661
1669
1677
1678
1665
1647
1621
1616
1619
1641
1644
1641
1623
1609
1617
1648
1680
1727
1759
1781
1797
1808
1815
1840
1862
1872
1861
1808
1723
1612
1490
1398
1335
1291
1278
1279
1275
1277
1282
1296
1327
1374
1425
1472
1517
1535
1553
1569
1595
1626
1675
1711
1731
1739
1730
1709
1691
1692
1712
1735
1747
1758
1751
1743
1730
1737
1755
1786
1807
1820
1815
1808
1797
1791
1797
1826
1854
1859
1856
1837
1817
1808
1811
1840
1883
1917
1931
1934
1925
1916
1919
1939
1968
2005
2027
2028
2022
2025
2034
2064
2095
2115
2132
2143
2150
2157
2160
2180
2213
2247
2274
2286
2274
2259
2251
2249
2256
2267
2282
2283
2259
2227
2197
2176
2160
2163
2158
2134
2102
2063
2013
1981
1959
1952
1942
1936
1925
1899
1869
1842
1831
1851
1869
1872
1847
1817
1789
1766
1762
1774
1798
1831
1841
1840
1824
1802
1792
1792
1807
1819
1828
1829
1815
1799
1788
1787
1803
1824
1839
1843
1839
1821
1796
1787
1792
1815
1843
1850
1829
1794
1769
1759
1767
1791
1818
1826
1829
1811
1792
1776
1773
1773
1777
1797
1807
1817
1822
1814
1815
1831
1849
1867
1879
1879
1860
1841
1843
1862
1885
1906
1918
1910
1885
1856
1844
1846
1874
1906
1931
1935
1921
1901
1872
1857
1855
1872
1894
1904
1894
1857
1819
1799
1791
1795
1819
1827
1823
1805
1780
1767
1775
1792
1814
1842
1858
1858
1840
1813
1810
1835
1874
1899
1898
1882
1861
1839
1815
1819
1837
1851
1842
1837
1823
1810
1826
1863
1919
1968
2003
2035
2070
2097
2122
2137
2158
2157
2116
2025
1914
1791
1680
1598
1535
1520
1520
1527
1535
1535
1554
1579
1614
1657
1712
1750
1779
1793
1806
1824
1850
1871
1899
1931
1966
1974
1966
1951
1951
1971
2000
2010
2007
2000
1997
1980
1973
1982
1990
2023
2041
2047
2039
2032
2021
2020
2035
2066
2082
2090
2089
2074
2070
2073
2070
2095
2113
2128
2142
2141
2128
2121
2128
2151
2182
2211
2227
2227
2224
2224
2240
2265
2299
2327
2352
2367
2368
2373
2375
2388
2415
2439
2461
2466
2449
2429
2416
2415
2423
2431
2432
2419
2397
2371
2351
2323
2307
2299
2288
2267
2225
2182
2137
2103
2078
2065
2055
2035
2023
1987
1958
1936
1933
1937
1949
1954
1942
1917
1897
1882
1879
1889
1901
1915
1917
1916
1894
1865
1855
1864
1874
1894
1904
1894
1875
1858
1847
1851
1866
1893
1911
1915
1899
1879
1863
1865
1878
1905
1934
1929
1905
1872
1850
1843
1864
1899
1923
1934
1925
1902
1872
1861
1873
1904
1929
1951
1951
1936
1918
1908
1907
1933
1951
1975
1983
1983
1968
1946
1932
1937
1961
1986
2001
2000
1989
1983
1982
2001
2023
2042
2061
2053
2032
2000
1979
1973
1975
1986
1991
1993
1971
1937
1920
1920
1917
1920
1936
1931
1910
1889
1872
1863
1873
1894
1910
1911
1911
1904
1889
1882
1889
1914
1938
1954
1953
1946
1927
1907
1899
1904
1913
1921
1916
1897
1879
1878
1890
1927
1993
2055
2096
2128
2157
2181
2211
2233
2263
2283
2263
2186
2064
1911
1789
1708
1643
1611
1594
1578
1565
1554
1535
1570
1605
1649
1710
1759
1788
1802
1813
1828
1856
1890
1931
1965
1979
1970
1957
1939
1945
1956
1983
2007
2027
2020
2000
1984
1974
1989
2007
2033
2057
2064
2059
2043
2039
2061
2086
2112
2119
2112
2099
2089
2081
2091
2112
2137
2160
2171
2173
2165
2156
2160
2172
2202
2235
2257
2267
2272
2282
2293
2306
2335
2367
2398
2416
2426
2421
2416
2425
2447
2470
2498
2502
2499
2487
2480
2480
2479
2482
2487
2480
2451
2421
2398
2379
2368
2364
2358
2353
2329
2287
2240
2192
2160
2144
2135
2124
2096
2061
2014
1979
1955
1949
1959
1959
1957
1946
1922
1894
1883
1888
1895
1901
1897
1872
1847
1824
1798
1783
1792
1825
1839
1821
1795
1766
1747
1735
1746
1763
1783
1791
1793
1765
1744
1729
1733
1754
1771
1775
1757
1737
1712
1703
1709
1728
1753
1779
1777
1765
1744
1741
1744
1757
1771
1776
1776
1765
1754
1754
1763
1775
1792
1807
1817
1829
1830
1826
1825
1833
1840
1851
1857
1860
1855
1845
1839
1837
1855
1877
1903
1917
1910
1909
1903
1906
1921
1941
1967
1975
1978
1963
1943
1933
1919
1917
1921
1921
1917
1895
1877
1862
1856
1856
1856
1854
1846
1837
1815
1802
1799
1803
1813
1831
1840
1837
1830
1813
1799
1800
1815
1835
1842
1825
1802
1785
1777
1781
1786
1796
1806
1786
1771
1769
1781
1809
1856
1902
1946
1984
2021
2067
2097
2127
2160
2177
2176
2128
2018
1891
1746
1616
1526
1472
1427
1409
1398
1387
1383
1399
1439
1490
1535
1595
1637
1667
1685
1706
1730
1744
1774
1809
1846
1856
1847
1827
1813
1830
1854
1863
1858
1830
1801
1782
1767
1776
1803
1846
1882
1901
1898
1872
1862
1872
1887
1923
1965
1999
2003
2000
1982
1959
1951
1954
1969
2000
2020
2003
1981
1969
1991
2038
2105
2144
2162
2169
2169
2166
2171
2182
2189
2195
2192
2177
2158
2131
2128
2158
2199
2225
2204
2176
2164
2175
2190
2214
2245
2287
2315
2330
2339
2334
2317
2287
2267
2251
2229
2213
2176
2112
2032
1923
1824
1744
1711
1709
1744
1803
1850
1858
1808
1740
1725
1701
1683
1683
1712
1755
1794
1811
1822
1815
1803
1802
1792
1762
1711
1658
1623
1638
1699
1779
1823
1839
1827
1821
1814
1798
1796
1787
1753
1713
1696
1677
1665
1654
1648
1653
1644
1613
1585
1583
1574
1566
1584
1631
1695
1744
1786
1809
1833
1835
1835
1817
1803
1779
1757
1738
1722
1727
1729
1711
1653
1602
1611
1645
1683
1722
1770
1808
1841
1846
1855
1850
1830
1840
1863
1854
1847
1837
1823
1791
1762
1755
1771
1791
1806
1812
1799
1772
1734
1703
1681
1681
1707
1728
1730
1728
1714
1685
1648
1635
1663
1711
1745
1761
1763
1767
1776
1784
1791
1802
1808
1799
1787
1782
1782
1785
1808
1832
1838
1826
1814
1801
1794
1817
1857
1906
1969
2010
2031
2032
2037
2073
2109
2135
2139
2117
2059
1957
1846
1740
1659
1613
1586
1557
1535
1535
1574
1610
1654
1712
1754
1790
1826
1856
1872
1903
1943
1991
2045
2094
2125
2134
2141
2160
2171
2175
2176
2187
2187
2193
2192
2177
2176
2183
2192
2209
2231
2256
2255
2237
2235
2238
2239
2230
2233
2246
2256
2263
2288
2298
2304
2298
2289
2290
2295
2299
2303
2314
2321
2340
2351
2368
2386
2389
2407
2414
2433
2448
2495
2522
2529
2526
2516
2515
2528
2549
2559
2598
2624
2619
2610
2601
2597
2595
2598
2593
2592
2587
2559
2582
2559
2551
2529
2497
2466
2432
2402
2375
2351
2326
2320
2308
2302
2278
2238
2206
2181
2161
2134
2119
2112
2096
2084
2064
2032
2039
2059
2063
2065
2066
2073
2068
2062
2047
2032
2014
2003
2007
2005
2021
2029
2031
2023
2046
2066
2069
2066
2055
2038
2033
2041
2061
2060
2039
2010
1981
1995
2018
2032
2047
2047
2029
2019
2027
2032
2028
2030
2035
2029
2018
2032
2070
2081
2101
2099
2096
2082
2082
2083
2070
2061
2062
2080
2125
2175
2183
2166
2131
2109
2094
2095
2112
2129
2151
2167
2176
2174
2160
2148
2139
2131
2131
2116
2109
2095
2103
2115
2097
2063
2023
2001
1992
2000
2017
2053
2067
2090
2085
2081
2084
2078
2061
2026
2008
2007
2019
2039
2066
2087
2100
2094
2068
2047
2067
2081
2091
2064
2027
1991
2007
2074
2116
2143
2162
2183
2198
2240
2281
2319
2333
2330
2304
2259
2173
2066
1969
1887
1803
1749
1720
1703
1680
1680
1692
1712
1728
1780
1840
1872
1904
1910
1920
1936
1958
1975
1998
2035
2070
2084
2090
2094
2070
2071
2064
2065
2080
2097
2101
2130
2160
2157
2113
2083
2074
2083
2107
2128
2159
2180
2191
2192
2194
2193
2193
2192
2193
2196
2203
2215
2224
2227
2224
2226
2225
2230
2242
2256
2275
2286
2288
2288
2302
2315
2341
2371
2387
2406
2417
2423
2427
2428
2450
2473
2479
2465
2454
2451
2477
2479
2481
2489
2496
2499
2496
2481
2462
2439
2423
2417
2411
2388
2369
2352
2321
2304
2288
2269
2251
2226
2215
2193
2169
2137
2115
2113
2119
2121
2117
2110
2098
2093
2100
2112
2112
2119
2122
2112
2105
2096
2092
2090
2090
2094
2105
2113
2113
2123
2118
2122
2123
2131
2149
2146
2128
2112
2106
2091
2085
2081
2078
2085
2083
2096
2098
2096
2091
2099
2113
2112
2105
2099
2102
2114
2128
2142
2151
2151
2143
2129
2112
2095
2079
2078
2082
2087
2091
2091
2096
2099
2107
2119
2131
2145
2167
2177
2171
2159
2152
2128
2106
2099
2095
2093
2087
2080
2064
2047
2035
2028
2018
2016
2011
2000
1987
1979
1968
1955
1943
1955
1975
1995
1991
1986
1968
1957
1955
1954
1946
1939
1938
1937
1940
1949
1942
1937
1925
1914
1919
1908
1879
1859
1841
1835
1840
1861
1894
1927
1967
1996
2031
2072
2103
2130
2163
2178
2185
2161
2091
1983
1864
1771
1680
1630
1586
1557
1535
1553
1563
1570
1567
1570
1586
1601
1628
1659
1691
1729
1759
1787
1808
1815
1825
1839
1856
1883
1904
1920
1927
1909
1898
1885
1874
1873
1875
1887
1890
1890
1892
1902
1918
1922
1933
1936
1941
1957
1967
1968
1963
1963
1962
1968
1973
1984
1987
2000
2014
2026
2042
2054
2064
2075
2083
2096
2109
2121
2143
2159
2178
2193
2212
2226
2224
2243
2267
2289
2313
2320
2323
2325
2331
2334
2339
2353
2363
2365
2366
2352
2335
2308
2289
2273
2287
2268
2241
2207
2183
2159
2127
2101
2091
2061
2037
2014
1986
1957
1929
1909
1903
1904
1904
1897
1882
1866
1853
1850
1843
1838
1834
1814
1810
1792
1782
1785
1792
1803
1808
1808
1806
1801
1798
1799
1795
1791
1791
1791
1783
1776
1781
1779
1786
1791
1798
1803
1805
1789
1763
1757
1746
1744
1740
1741
1741
1743
1742
1743
1737
1751
1755
1751
1744
1737
1728
1728
1739
1743
1744
1747
1767
1779
1790
1803
1803
1796
1791
1787
1779
1776
1776
1786
1792
1802
1808
1808
1810
1814
1811
1815
1835
1857
1870
1879
1875
1867
1863
1863
1865
1865
1859
1857
1849
1849
1834
1814
1807
1794
1778
1781
1779
1778
1781
1783
1774
1767
1759
1755
1757
1761
1761
1766
1773
1781
1779
1778
1777
1776
1775
1773
1775
1774
1776
1766
1764
1761
1763
1765
1789
1811
1849
1891
1926
1968
2014
2071
2124
2167
2192
2210
2205
2155
2074
1967
1861
1761
1680
1621
1574
1525
1501
1491
1509
1514
1525
1535
1565
1595
1628
1653
1680
1697
1712
1737
1766
1795
1822
1842
1856
1856
1856
1863
1867
1872
1874
1886
1891
1895
1898
1902
1897
1900
1909
1922
1938
1951
1966
1966
1968
1966
1968
1983
1994
