1858
1862
1877
1897
1908
1906
1904
1907
1907
1909
1904
1894
1887
1881
1885
1881
1887
1889
1881
1874
1874
1871
1856
1841
1841
1849
1861
1870
1867
1861
1863
1866
1861
1857
1862
1862
1855
1845
1840
1840
1840
1841
1850
1856
1852
1853
1846
1843
1845
1849
1850
1851
1853
1856
1873
1900
1935
1977
2018
2047
2082
2112
2143
2164
2161
2139
2107
2044
1965
1861
1762
1680
1621
1590
1571
1567
1571
1582
1584
1597
1606
1629
1660
1700
1727
1744
1775
1794
1808
1838
1855
1886
1914
1930
1939
1951
1959
1965
1966
1965
1987
2005
2007
2006
2004
2001
2005
2015
2032
2039
2055
2047
2043
2039
2047
2055
2071
2093
2099
2107
2105
2107
2125
2139
2162
2166
2167
2167
2166
2169
2176
2191
2213
2215
2218
2224
2242
2262
2288
2310
2335
2355
2368
2391
2416
2426
2432
2448
2454
2470
2480
2491
2496
2496
2496
2494
2497
2495
2487
2496
2490
2463
2443
2416
2399
2382
2361
2341
2320
2297
2263
2236
2211
2192
2170
2144
2123
2097
2070
2061
2043
2031
2000
1982
1969
1961
1951
1945
1933
1931
1943
1951
1936
1921
1904
1894
1894
1889
1893
1900
1904
1904
1905
1905
1897
1887
1883
1883
1885
1889
1893
1898
1894
1886
1886
1883
1887
1885
1879
1873
1872
1862
1856
1845
1841
1841
1840
1842
1844
1853
1846
1838
1837
1843
1845
1842
1839
1834
1835
1840
1847
1852
1856
1861
1859
1855
1856
1856
1867
1871
1871
1860
1856
1854
1845
1840
1835
1842
1854
1862
1859
1874
1879
1859
1851
1845
1853
1855
1854
1854
1858
1869
1871
1875
1891
1904
1917
1923
1925
1921
1921
1925
1936
1945
1953
1954
1968
1964
1966
1967
1968
1964
1959
1963
1954
1946
1936
1935
1933
1930
1923
1911
1904
1891
1882
1872
1875
1898
1899
1872
1849
1839
1840
1838
1840
1830
1827
1837
1840
1835
1825
1823
1825
1835
1843
1856
1863
1856
1854
1842
1841
1840
1833
1815
1840
1846
1845
1854
1881
1919
1963
2000
2043
2078
2115
2146
2166
2174
2174
2141
2078
1968
1845
1738
1647
1573
1517
1470
1454
1451
1468
1488
1511
1531
1559
1595
1646
1676
1687
1712
1731
1768
1808
1833
1862
1891
1909
1914
1920
1931
1938
1953
1973
1983
1984
1987
1983
1986
2000
2002
1998
1995
2000
2000
2001
2007
2013
2020
2023
2029
2032
2045
2064
2074
2085
2101
2128
2131
2128
2125
2129
2139
2147
2151
2167
2185
2207
2224
2235
2250
2262
2283
2303
2327
2351
2369
2381
2387
2393
2407
2426
2442
2462
2477
2487
2491
2490
2480
2485
2490
2480
2476
2465
2455
2446
2431
2419
2412
2411
2397
2368
2342
2318
2288
2257
2238
2227
2208
2184
2149
2101
2065
2023
2006
2000
1987
1970
1958
1949
1939
1933
1928
1919
1919
1915
1907
1898
1876
1869
1861
1862
1865
1872
1882
1887
1886
1875
1873
1870
1857
1846
1840
1855
1856
1853
1840
1830
1827
1831
1829
1823
1825
1823
1819
1818
1817
1823
1831
1851
1829
1806
1797
1798
1805
1808
1815
1820
1815
1813
1815
1823
1849
1855
1840
1829
1825
1823
1824
1823
1819
1818
1807
1799
1793
1793
1800
1804
1795
1802
1808
1808
1808
1808
1810
1808
1806
1805
1803
1809
1809
1818
1825
1827
1836
1835
1844
1857
1871
1879
1885
1874
1870
1872
1861
1858
1863
1872
1881
1885
1890
1898
1907
1909
1909
1919
1931
1939
1939
1949
1953
1949
1936
1936
1935
1938
1936
1920
1905
1895
1882
1873
1870
1861
1855
1851
1855
1852
1855
1860
1859
1856
1847
1840
1826
1821
1821
1827
1844
1870
1871
1865
1857
1854
1852
1842
1848
1848
1856
1865
1869
1856
1850
1841
1846
1872
1904
1943
1979
2013
2055
2097
2160
2218
2242
2254
2261
2242
2181
2092
1962
1839
1725
1634
1568
1501
1456
1427
1418
1424
1445
1483
1518
1553
1603
1638
1653
1680
1725
1767
1802
1829
1854
1874
1901
1913
1923
1936
1951
1966
1968
1973
1981
1997
2003
2001
2005
2006
2003
1996
1989
1999
2011
2022
2032
2045
2064
2069
2074
2087
2095
2107
2117
2113
2110
2107
2096
2096
2100
2114
2133
2155
2171
2186
2206
2238
2267
2279
2286
2289
2295
2311
2321
2339
2352
2361
2379
2395
2416
2431
2449
2471
2480
2494
2506
2523
2533
2538
2525
2512
2504
2495
2497
2495
2474
2446
2419
2394
2365
2341
2317
2295
2277
2250
2224
2198
2178
2149
2117
2096
2065
2042
2027
2003
1994
1981
1972
1967
1957
1952
1939
1933
1920
1906
1895
1886
1886
1887
1893
1890
1879
1871
1870
1867
1867
1870
1875
1872
1869
1865
1863
1863
1867
1878
1891
1895
1906
1894
1868
1846
1845
1845
1855
1872
1883
1885
1874
1865
1857
1852
1847
1855
1859
1866
1867
1858
1854
1861
1859
1854
1846
1853
1857
1859
1872
1877
1891
1875
1859
1842
1838
1840
1842
1848
1857
1862
1871
1879
1887
1889
1885
1885
1890
1895
1899
1898
1895
1899
1904
1915
1910
1904
1902
1901
1915
1935
1936
1935
1936
1936
1944
1957
1962
1963
1966
1962
1968
1973
1985
1997
2000
2003
1995
1986
1984
1983
1982
1971
1962
1955
1940
1936
1925
1914
1904
1897
1895
1899
1901
1898
1904
1905
1898
1885
1883
1882
1873
1879
1887
1885
1877
1874
1877
1879
1886
1901
1895
1899
1894
1903
1913
1920
1906
1883
1866
1856
1871
1904
1947
1992
2031
2058
2096
2128
2153
2166
2183
2193
2190
2133
2041
1936
1824
1716
1624
1561
1501
1472
1466
1469
1487
1507
1530
1569
1607
1648
1682
1735
1767
1802
1834
1872
1902
1920
1941
1962
1971
1973
1978
1991
2005
2023
2026
2007
2001
2007
2012
2021
2025
2029
2030
2032
2045
2061
2065
2078
2078
2081
2086
2096
2093
2083
2076
2077
2083
2086
2095
2110
2126
2134
2149
2167
2186
2202
2207
2208
2209
2208
2217
2241
2260
2287
2305
2320
2335
2337
2368
2395
2416
2422
2432
2429
2431
2447
2452
2465
2479
2485
2487
2487
2482
2465
2452
2435
2416
2416
2413
2403
2380
2354
2326
2298
2265
2235
2209
2187
2162
2133
2102
2070
2044
2033
2023
2013
1991
1971
1953
1937
1936
1934
1925
1926
1917
1898
1881
1872
1869
1874
1886
1877
1877
1895
1905
1890
1872
1857
1853
1854
1849
1850
1845
1840
1830
1827
1830
1835
1842
1851
1854
1856
1858
1856
1840
1837
1839
1840
1831
1816
1806
1808
1813
1812
1817
1822
1817
1805
1798
1805
1805
1810
1823
1835
1833
1833
1822
1808
1803
1795
1802
1806
1828
1847
1854
1841
1829
1826
1835
1842
1842
1841
1842
1845
1847
1872
1878
1872
1869
1871
1872
1858
1859
1859
1872
1893
1899
1903
1904
1894
1883
1877
1890
1910
1918
1924
1930
1920
1907
1904
1904
1916
1925
1921
1919
1918
1906
1901
1893
1878
1858
1844
1838
1842
1856
1849
1831
1810
1809
1818
1823
1836
1843
1840
1833
1812
1808
1807
1802
1800
1806
1808
1819
1825
1830
1840
1842
1839
1824
1803
1797
1805
1819
1845
1873
1908
1947
1973
2000
2020
2062
2075
2084
2095
2074
2023
1954
1856
1745
1657
1586
1535
1501
1480
1482
1488
1503
1518
1535
1578
1610
1641
1664
1695
1728
1762
1790
1819
1847
1879
1883
1894
1907
1921
1931
1946
1958
1968
1966
1957
1965
1981
1978
1967
1958
1957
1965
1969
1975
1986
1995
2000
2007
2012
2015
2014
2012
2007
2009
2016
2023
2032
2032
2032
2043
2059
2080
2096
2103
2111
2116
2123
2133
2147
2163
2171
2182
2209
2230
2245
2256
2268
2287
2311
2321
2333
2348
2352
2362
2368
2375
2379
2381
2385
2401
2416
2415
2406
2399
2395
2391
2384
2377
2358
2326
2300
2256
2224
2192
2163
2137
2107
2075
2043
2029
2000
1974
1958
1943
1931
1917
1903
1891
1883
1875
1867
1862
1855
1843
1843
1840
1839
1827
1826
1822
1814
1827
1849
1855
1839
1810
1807
1821
1829
1828
1835
1856
1855
1835
1814
1808
1808
1808
1808
1810
1813
1808
1808
1808
1810
1819
1819
1818
1815
1813
1811
1813
1810
1813
1814
1807
1807
1808
1814
1811
1808
1809
1808
1814
1812
1821
1822
1823
1827
1838
1845
1855
1856
1843
1824
1810
1812
1818
1835
1854
1870
1873
1872
1887
1879
1869
1866
1870
1879
1889
1895
1887
1870
1858
1863
1869
1883
1899
1909
1914
1919
1925
1936
1948
1955
1955
1955
1942
1936
1932
1935
1931
1927
1933
1927
1920
1909
1899
1897
1877
1872
1897
1919
1914
1878
1855
1840
1839
1850
1867
1872
1879
1882
1882
1883
1872
1866
1863
1871
1865
1867
1865
1864
1863
1866
1866
1856
1841
1839
1841
1851
1870
1907
1965
2000
2030
2054
2074
2109
2145
2189
2221
2234
2199
2137
2029
1919
1808
1715
1648
1607
1581
1561
1553
1553
1559
1575
1600
1626
1656
1681
1712
1737
1756
1783
1810
1839
1859
1875
1889
1904
1933
1964
1978
1974
1971
1971
1973
1973
1979
1971
1970
1970
1978
1991
2005
2017
2019
2023
2026
2032
2035
2041
2058
2065
2079
2077
2074
2069
2078
2091
2103
2121
2112
2103
2103
2109
2112
2125
2145
2166
2186
2210
2224
2229
2240
2251
2265
2288
2320
2352
2371
2387
2413
2435
2455
2473
2485
2491
2491
2495
2491
2491
2490
2495
2500
2507
2494
2478
2458
2435
2415
2400
2378
2355
2337
2326
2303
2274
2242
2213
2183
2154
2123
2096
2079
2054
2033
2019
2005
1999
1989
1972
1958
1938
1931
1925
1921
1921
1919
1923
1926
1920
1912
1913
1910
1906
1910
1907
1902
1889
1887
1892
1914
1927
1921
1905
1899
1879
1883
1891
1895
1897
1894
1893
1894
1893
1889
1889
1890
1894
1894
1906
1902
1900
1887
1895
1897
1890
1873
1871
1867
1868
1861
1861
1867
1869
1872
1885
1889
1872
1865
1861
1872
1872
1879
1884
1902
1902
1898
1891
1888
1895
1910
1936
1949
1952
1951
1949
1951
1954
1969
1966
1967
1953
1953
1942
1936
1936
1955
1984
2006
2016
2007
1994
1989
1986
1995
2010
2039
2047
2039
2029
2029
2017
2006
2015
2024
2039
2045
2031
2012
1997
1981
1968
1955
1950
1950
1935
1917
1910
1909
1907
1907
1911
1918
1939
1936
1915
1902
1897
1893
1897
1902
1902
1902
1899
1903
1909
1920
1920
1925
1923
1905
1887
1874
1879
1900
1935
1984
2047
2112
2160
2189
2210
2245
2290
2330
2367
2391
2369
2295
2181
2059
1930
1824
1755
1691
1635
1589
1572
1565
1570
1597
1622
1647
1661
1678
1701
1741
1778
1807
1826
1859
1883
1905
1921
1936
1951
1973
1995
2000
2000
1999
1997
1997
1991
1988
1999
2010
2018
2020
2015
2021
2031
2039
2054
2057
2061
2064
2061
2061
2063
2071
2082
2091
2087
2082
2091
2100
2111
2123
2143
2160
2183
2206
2223
2240
2243
2240
2235
2238
2252
2261
2282
2314
2350
2363
2375
2395
2419
2430
2437
2446
2449
2457
2459
2469
2482
2499
2495
2480
2459
2449
2448
2438
2427
2416
2384
2368
2353
2331
2310
2291
2271
2251
2221
2192
2179
2158
2123
2085
2055
2035
2031
2015
1995
1973
1952
1945
1936
1920
1910
1903
1887
1872
1856
1851
1847
1856
1872
1887
1882
1874
1862
1861
1843
1836
1833
1830
1839
1849
1863
1873
1878
1873
1872
1886
1877
1860
1839
1819
1822
1820
1823
1816
1814
1813
1813
1819
1815
1809
1808
1807
1803
1799
1811
1833
1859
1872
1859
1848
1849
1851
1840
1829
1824
1819
1821
1823
1828
1837
1840
1839
1843
1843
1848
1853
1859
1873
1894
1902
1903
1899
1901
1888
1885
1901
1909
1920
1935
1938
1942
1945
1953
1966
1965
1950
1941
1937
1937
1958
1968
1980
1971
1959
1949
1940
1939
1931
1920
1904
1891
1879
1875
1881
1875
1878
1884
1883
1871
1866
1870
1872
1874
1879
1883
1885
1889
1887
1889
1891
1892
1893
1905
1909
1919
1925
1936
1931
1920
1905
1882
1866
1856
1872
1905
1936
1974
2007
2041
2067
2078
2096
2115
2135
2145
2128
2086
2007
1909
1808
1725
1661
1601
1554
1520
1517
1521
1556
1582
1613
1642
1666
1692
1728
1758
1786
1825
1859
1903
1929
1943
1957
1967
1979
1995
2008
2019
2029
2031
2031
2032
2038
2039
2056
2059
2058
2063
2070
2081
2097
2112
2102
2090
2085
2090
2089
2083
2089
2098
2103
2108
2112
2112
2119
2125
2128
2133
2143
2150
2162
2166
2186
2201
2223
2231
2250
2263
2277
2289
2307
2331
2359
2376
2406
2448
2467
2480
2483
2495
2499
2507
2516
2529
2537
2526
2504
2482
2471
2464
2449
2443
2435
2421
2410
2393
2384
2359
2339
2309
2279
2250
2224
2198
2169
2137
2112
2096
2078
2064
2047
2037
2032
2015
1999
1981
1968
1957
1947
1939
1939
1955
1959
1948
1934
1918
1914
1911
1922
1914
1899
1885
1885
1887
1890
1892
1891
1889
1886
1876
1872
1897
1925
1930
1913
1893
1875
1871
1866
1856
1856
1860
1861
1866
1871
1873
1877
1885
1891
1893
1897
1893
1889
1889
1883
1878
1871
1874
1878
1872
1870
1859
1856
1856
1862
1870
1887
1890
1893
1901
1900
1914
1911
1891
1871
1861
1859
1870
1882
1887
1887
1891
1904
1919
1921
1911
1894
1891
1902
1917
1934
1941
1939
1937
1919
1907
1906
1904
1903
1908
1914
1918
1905
1883
1867
1847
1840
1831
1810
1811
1815
1821
1825
1825
1835
1840
1861
1865
1846
1821
1806
1792
1795
1802
1811
1826
1840
1840
1828
1812
1801
1803
1804
1805
1803
1794
1791
1791
1808
1843
1885
1930
1967
1990
2010
2041
2081
2110
2133
2147
2130
2087
2004
1907
1820
1730
1650
1593
1535
1528
1520
1521
1527
1535
1563
1596
1623
1646
1663
1680
1707
1733
1766
1794
1825
1843
1862
1875
1893
1933
1961
1946
1926
1918
1920
1920
1917
1917
1925
1931
1933
1940
1945
1946
1948
1947
1943
1950
1962
1969
1983
1984
1984
1984
1986
1994
2002
2007
2013
2010
2017
2023
2037
2053
2062
2071
2090
2106
2123
2128
2128
2147
2162
2162
2176
2198
2221
2237
2247
2259
2273
2287
2303
2316
2331
2342
2353
2352
2354
2352
2341
2339
2338
2326
2320
2302
2288
2273
2256
2246
2231
2221
2224
2219
2179
2145
2118
2096
2075
2055
2021
1999
1981
1967
1936
1919
1909
1904
1902
1895
1887
1877
1872
1872
1867
1865
1855
1840
1830
1823
1825
1833
1837
1841
1840
1839
1828
1820
1821
1829
1840
1840
1826
1819
1811
1813
1828
1833
1835
1840
1847
1846
1840
1837
1841
1843
1850
1851
1853
1851
1841
1840
1843
1849
1853
1851
1834
1823
1813
1808
1808
1808
1819
1840
1837
1830
1823
1821
1813
1808
1811
1824
1840
1843
1843
1840
1841
1844
1854
1860
1865
1867
1865
1857
1865
1868
1869
1877
1893
1904
1910
1911
1908
1907
1909
1907
1915
1917
1922
1923
1921
1921
1915
1917
1930
1919
1903
1886
1872
1847
1846
1843
1840
1845
1847
1845
1841
1844
1841
1843
1859
1870
1872
1866
1844
1826
1818
1813
1823
1840
1847
1857
1871
1869
1872
1874
1861
1849
1841
1840
1837
1817
1803
1797
1808
1841
1885
1934
1975
1999
2021
2057
2093
2123
2155
2177
2192
2177
2121
2027
1920
1818
1728
1667
1618
1582
1535
1525
1519
1530
1559
1586
1616
1648
1669
1680
1693
1713
1735
1759
1787
1808
1827
1841
1863
1873
1882
1892
1901
1919
1926
1922
1920
1920
1923
1928
1936
1946
1957
1968
1969
1970
1973
1999
2013
2000
1984
1971
1981
1987
1995
2001
2019
2031
2045
2053
2055
2053
2067
2089
2099
2115
2138
2155
2160
2171
2177
2187
2195
2214
2239
2256
2273
2282
2294
2309
2330
2351
2370
2401
2419
2429
2425
2435
2450
2446
2433
2425
2420
2419
2422
2417
2416
2415
2398
2384
2374
2352
2325
2310
2282
2243
2222
2192
2163
2138
2110
2081
2047
2021
1997
1983
1977
1967
1949
1933
1915
1905
1910
1909
1901
1880
1871
1853
1840
1837
1841
1836
1825
1819
1811
1808
1814
1817
1823
1826
1831
1837
1845
1844
1831
1812
1802
1801
1798
1807
1808
1807
1801
1795
1789
1788
1791
1801
1799
1795
1790
1782
1774
1766
1778
1802
1810
1809
1806
1809
1814
1827
1833
1830
1825
1817
1819
1823
1823
1820
1825
1834
1840
1850
1861
1869
1872
1871
1875
1889
1903
1910
1916
1918
1915
1909
1904
1895
1889
1899
1914
1920
1921
1927
1933
1938
1958
1976
1983
1993
1997
1990
1985
1998
2000
1993
1985
1983
1962
1937
1925
1917
1908
1901
1889
1886
1883
1870
1857
1853
1867
1869
1870
1867
1875
1893
1874
1855
1856
1854
1847
1850
1849
1855
1867
1863
1861
1862
1872
1876
1877
1874
1866
1847
1838
1829
1821
1834
1857
1893
1935
1981
2015
2062
2115
2171
2239
2288
2335
2369
2383
2350
2263
2145
2006
1879
1765
1674
1599
1531
1499
1489
1493
1518
1535
1568
1598
1629
1665
1689
1721
1751
1787
1821
1861
1892
1907
1924
1939
1959
1975
1984
1987
1994
2000
2001
2010
2022
2028
2032
2032
2030
2021
2026
2035
2059
2082
2096
2107
2099
2093
2089
2103
2113
2128
2144
2146
2141
2139
2145
2160
2175
2176
2176
2172
2181
2192
2208
2221
2227
2263
2309
2352
2352
2343
2351
2362
2386
2428
2477
2497
2501
2495
2486
2496
2523
2550
2581
2580
2558
2535
2515
2510
2521
2538
2544
2537
2502
2469
2447
2430
2411
2384
2357
2331
2307
2283
2256
2236
2213
2197
2176
2160
2151
2128
2107
2086
2075
2063
2044
2033
2025
2016
2010
1997
1971
1965
1946
1936
1921
1904
1896
1879
1872
1873
1885
1891
1898
1902
1897
1891
1893
1895
1895
1893
1885
1877
1867
1856
1855
1849
1839
1840
1856
1863
1851
1839
1827
1829
1826
1835
1838
1839
1840
1838
1837
1831
1830
1837
1843
1857
1872
1871
1859
1856
1863
1871
1874
1885
1904
1909
1899
1889
1898
1895
1879
1881
1885
1887
1901
1905
1918
1941
1970
1982
1982
1981
1986
1983
1984
1984
1995
2004
2007
2015
2007
1986
1964
1946
1932
1931
1938
1940
1937
1936
1921
1911
1904
1901
1899
1907
1914
1921
1925
1924
1927
1935
1936
1936
1945
1945
1947
1939
1933
1939
1958
1950
1951
1955
1954
1939
1929
1915
1904
1894
1881
1889
1903
1926
1954
1983
2023
2064
2100
2132
2154
2171
2174
2178
2175
2155
2111
2031
1925
1808
1696
1607
1535
1510
1490
1503
1534
1571
1601
1627
1649
1677
1702
1729
1759
1774
1798
1831
1854
1881
1907
1931
1954
1975
2000
2002
2004
2003
2005
2005
2003
2016
2025
2019
2021
2016
2014
2027
2046
2045
2032
2017
2004
2010
2016
2021
2032
2064
2082
2091
2075
2063
2064
2091
2113
2123
2113
2106
2103
2103
2111
2123
2131
2147
2165
2192
2199
2211
2226
2253
2283
2305
2331
2352
2369
2384
2399
2417
2448
2465
2479
2482
2486
2486
2485
2473
2462
2451
2452
2448
2445
2441
2427
2394
2367
2345
2331
2320
2320
2301
2283
2254
2222
2191
2161
2137
2112
2079
2059
2041
2025
2014
2009
2001
1991
1973
1969
1974
1968
1959
1953
1963
1973
1963
1946
1935
1920
1903
1901
1899
1903
1911
1919
1919
1911
1903
1897
1895
1895
1903
1898
1887
1875
1877
1874
1870
1865
1856
1844
1839
1837
1839
1851
1857
1867
1878
1898
1905
1902
1902
1904
1881
1857
1844
1829
1817
1811
1820
1837
1843
1850
1847
1847
1852
1855
1858
1861
1862
1873
1891
1904
1894
1877
1871
1872
1878
1885
1893
1901
1904
1906
1914
1904
1902
1904
1914
1904
1895
1890
1886
1882
1873
1872
1865
1860
1853
1840
1840
1837
1831
1826
1835
1835
1844
1844
1840
1839
1832
1831
1837
1841
1863
1879
1883
1882
1879
1872
1858
1851
1856
1856
1858
1857
1847
1825
1808
1815
1840
1878
1919
1952
1969
1993
2038
2070
2118
2156
2178
2188
2155
2083
1989
1899
1809
1717
1647
1584
1535
1520
1515
1525
1561
1584
1602
1615
1634
1671
1695
1713
1745
1767
1790
1818
1840
1863
1879
1898
1914
1933
1936
1951
1955
1949
1952
1957
1957
1967
1990
2021
2027
2030
2030
2027
2002
1986
1994
2012
2028
2032
2030
2021
2018
2026
2037
2047
2061
2061
2062
2066
2074
2095
2111
2129
2147
2145
2135
2129
2143
2151
2164
2189
2211
2241
2261
2285
2301
2302
2305
2321
2330
2343
2352
2362
2359
2365
2380
2401
2415
2426
2433
2429
2411
2386
2367
2352
2342
2322
2309
2294
2269
2253
2231
2211
2191
2173
2147
2127
2096
2065
2034
2009
1989
1972
1958
1962
1955
1943
1919
1895
1874
1871
1872
1879
1879
1866
1845
1834
1840
1847
1858
1869
1867
1854
1841
1829
1826
1818
1819
1826
1835
1840
1838
1835
1834
1825
1826
1829
1839
1842
1850
1851
1853
1860
1857
1856
1853
1858
1860
1859
1843
1835
1843
1865
1883
1877
1856
1855
1851
1841
1831
1830
1840
1848
1856
1858
1854
1840
1836
1829
1833
1837
1830
1824
1814
1822
1833
1851
1869
1882
1891
1904
1911
1920
1920
1915
1914
1919
1918
1905
1902
1887
1887
1886
1879
1875
1867
1854
1840
1828
1821
1808
1799
1797
1808
1819
1814
1809
1810
1811
1819
1825
1823
1815
1799
1783
1772
1762
1763
1770
1777
1788
1802
1808
1791
1791
1792
1791
1783
1771
1749
1728
1714
1721
1750
1797
1849
1899
1937
1981
2015
2063
2103
2142
2176
2192
2177
2122
2023
1914
1824
1706
1639
1589
1555
1535
1533
1527
1529
1535
1570
1584
1614
1634
1649
1664
1679
1711
1745
1783
1808
1826
1831
1839
1845
1855
1869
1891
1920
1936
1947
1939
1925
1919
1922
1936
1949
1953
1954
1953
1952
1952
1957
1971
1990
2003
2003
1998
1988
1998
2010
2019
2029
2037
2045
2062
2063
2062
2064
2067
2071
2086
2096
2110
2128
2148
2165
2190
2207
2227
2256
2277
2282
2288
2288
2302
2320
2337
2353
2369
2386
2390
2395
2391
2399
2407
2415
2426
2423
2415
2404
2384
2373
2357
2341
2331
2311
2288
2259
2230
2192
2164
2135
2105
2079
2055
2027
2004
1980
1955
1947
1936
1923
1914
1901
1889
1887
1878
1866
1856
1844
1842
1828
1810
1803
1793
1798
1802
1807
1807
1801
1801
1797
1798
1803
1802
1794
1797
1797
1796
1782
1775
1771
1772
1778
1791
1789
1777
1776
1781
1776
1770
1776
1777
1786
1790
1775
1755
1751
1746
1757
1763
1776
1778
1776
1781
1776
1784
1790
1781
1779
1777
1778
1781
1792
1801
1820
1837
1846
1853
1840
1826
1813
1806
1809
1813
1824
1842
1853
1864
1865
1860
1864
1873
1879
1892
1904
1911
1931
1936
1930
1918
1911
1904
1900
1871
1845
1826
1810
1799
1798
1797
1801
1797
1787
1778
1776
1789
1808
1821
1821
1813
1805
1792
1787
1786
1787
1787
1786
1789
1790
1779
1773
1760
1767
1777
1783
1783
1776
1761
1741
1718
1718
1731
1774
1823
1884
1925
1968
2000
2042
2089
2137
2183
2224
2263
2263
2214
2114
1984
1855
1728
1627
1535
1479
1431
1403
1387
1393
1413
1439
1477
1509
1535
1584
1606
1634
1679
1713
1747
1767
1785
1802
1814
1826
1838
1846
1852
1860
1857
1859
1861
1871
1883
1904
1919
1926
1924
1923
1907
1906
1915
1922
1935
1951
1955
1952
1948
1946
1951
1966
1978
2000
2016
2032
2046
2047
2046
2060
2067
2081
2092
2098
2112
2128
2156
2183
2208
2223
2239
2262
2286
2304
2308
2311
2320
2341
2357
2368
2375
2389
2407
2416
2431
2448
2464
2474
2474
2469
2462
2457
2454
2458
2459
2451
2438
2415
2384
2355
2330
2314
2301
2283
2257
2224
2176
2132
2097
2068
2039
2016
1998
1982
1957
1936
1911
1899
1893
1888
1876
1846
1810
1787
1776
1781
1802
1824
1854
1872
1878
1888
1878
1862
1849
1834
1825
1821
1810
1804
1796
1792
1798
1801
1803
1785
1769
1745
1734
1729
1725
1712
1710
1705
1709
1711
1718
1738
1758
1795
1842
1867
1866
1840
1819
1803
1792
1785
1789
1783
1775
1763
1770
1771
1774
1776
1774
1767
1764
1765
1775
1781
1786
1791
1798
1795
1796
1797
1798
1823
1851
1862
1881
1907
1934
1946
1938
1934
1938
1946
1957
1963
1966
1955
1934
1904
1859
1821
1808
1827
1855
1871
1863
1854
1842
1826
1816
1806
1797
1803
1798
1806
1810
1804
1795
1798
1793
1789
1791
1805
1826
1843
1851
1827
1808
1793
1801
1808
1831
1856
1872
1872
1872
1866
1841
1812
1793
1778
1777
1792
1832
1869
1909
1955
2005
2067
2130
2207
2269
2313
2327
2298
2213
2085
1936
1797
1667
1558
1483
1430
1405
1409
1425
1452
1469
1473
1473
1471
1505
1556
1618
1707
1774
1825
1862
1881
1888
1897
1921
1951
1982
2000
2011
2013
2007
1997
1980
1966
1968
1972
1979
1976
1975
1978
1983
1974
1989
2011
2025
2047
2070
2080
2069
2045
2022
2021
2037
2087
2128
2167
2190
2194
2203
2197
2195
2214
2240
2262
2287
2300
2299
2283
2271
2259
2269
2302
2354
2405
2443
2480
2507
2515
2529
2540
2550
2559
2559
2591
2608
2608
2608
2615
2625
2634
2610
2559
2544
2517
2499
2485
2471
2450
2428
2387
2352
2304
2278
2243
2222
2213
2219
2215
2198
2173
2137
2103
2081
2064
2039
2021
2013
2005
2001
1994
1975
1965
1957
1941
1933
1925
1909
1904
1904
1904
1902
1898
1895
1890
1887
1885
1873
1866
1859
1856
1845
1847
1847
1845
1841
1851
1859
1869
1885
1898
1886
1867
1856
1851
1850
1853
1856
1854
1851
1857
1856
1856
1858
1860
1861
1856
1851
1858
1874
1891
1902
1891
1872
1861
1855
1847
1845
1845
1853
1857
1874
1888
1887
1878
1875
1887
1904
1904
1904
1902
1903
1898
1904
1907
1918
1923
1931
1947
1951
1952
1941
1923
1913
1904
1899
1885
1872
1859
1846
1839
1836
1830
1831
1839
1845
1853
1837
1805
1777
1779
1792
1807
1829
1837
1831
1821
1809
1798
1798
1807
1823
1831
1843
1847
1851
1846
1836
1811
1790
1776
1764
1767
1787
1818
1857
1902
1937
1963
1978
1991
2010
2041
2086
2128
2135
2096
2019
1909
1787
1675
1578
1495
1442
1399
1378
1366
1379
1392
1423
1455
1488
1524
1571
1610
1647
1683
1727
1766
1792
1808
1830
1853
1867
1876
1886
1904
1907
1911
1920
1934
1947
1959
1950
1938
1938
1949
1955
1964
1977
1979
1977
1969
1967
1963
1971
1981
1980
1984
1995
2014
2047
2085
2097
2097
2099
2101
2105
2103
2095
2103
2123
2142
2155
2167
2179
2178
2193
2219
2232
2256
2268
2288
2315
2352
2375
2390
2407
2422
2439
2450
2458
2467
2489
2494
2486
2486
2475
2455
2434
2407
2384
2369
2374
2371
2359
2339
2313
2288
2246
2207
2176
2149
2131
2111
2089
2069
2032
2010
2000
1987
1984
1966
1952
1934
1914
1904
1892
1888
1880
1870
1856
1853
1830
1805
1787
1779
1785
1785
1791
1803
1805
1810
1825
1837
1831
1831
1835
1831
1823
1819
1813
1803
1793
1789
1791
1789
1785
1767
1753
1743
1733
1722
1718
1719
1726
1723
1722
1721
1727
1744
1751
1762
1776
1786
1792
1799
1808
1818
1837
1849
1849
1831
1808
1795
1789
1782
1793
1813
1831
1847
1855
1865
1869
1873
1885
1898
1887
1878
1869
1861
1847
1842
1856
1854
1853
1851
1843
1843
1845
1839
1819
1803
1791
1791
1790
1792
1799
1801
1801
1791
1783
1783
1777
1767
1772
1770
1773
1772
1772
1763
1758
1756
1756
1761
1774
1774
1779
1783
1779
1778
1767
1753
1749
1755
1753
1744
1747
1763
1794
1831
1862
1891
1933
1982
2031
2055
2062
2064
2038
1987
1918
1834
1735
1646
1567
1505
1454
1408
1391
1401
1426
1457
1472
1498
1520
1527
1535
1589
1618
1648
1686
1723
1744
1762
1776
1789
1818
1839
1854
1866
1876
1885
1895
1909
1921
1922
1923
1930
1930
1929
1926
1933
1941
1953
1967
1973
1989
1985
1993
1995
2007
2025
2026
2022
2021
2026
2029
2032
2033
2063
2075
2095
2111
2118
2119
2119
2126
2128
2144
2167
2185
2203
2231
2247
2259
2273
2288
2306
2336
2384
2417
2422
2413
2401
2396
2403
2415
2417
2415
2403
2389
2381
2368
2354
2351
2334
2315
2301
2286
2263
2249
2224
2208
2195
2176
2151
2125
2111
2097
2074
2038
2017
2001
1987
1974
1971
1959
1947
1943
1927
1917
1904
1902
1895
1895
1891
1894
1901
1904
1907
1904
1903
1897
1891
1890
1884
1879
1883
1879
1871
1857
1857
1865
1872
1877
1872
1858
1853
1846
1840
1840
1846
1856
1852
1855
1849
1849
1855
1869
1879
1886
1889
1888
1875
1865
1866
1872
1877
1873
1881
1887
1890
1890
1887
1898
1907
1920
1927
1930
1921
1930
1936
1936
1937
1936
1935
1925
1919
1920
1935
1955
1965
1968
1974
1974
1966
1955
1953
1951
1953
1953
1968
1961
1936
1909
1891
1873
1867
1861
1867
1876
1894
1906
1907
1910
1904
1905
1904
1901
1898
1902
1902
1898
1889
1885
1883
1881
1879
1882
1883
1892
1898
1895
1901
1901
1888
1873
1872
1872
1892
1914
1956
2000
2054
2096
2126
2156
2171
2177
2183
2199
2199
2183
2117
2017
1917
1817
1727
1669
1630
1590
1557
1535
1559
1575
1591
1613
1644
1675
1713
1744
1773
1801
1830
1857
1882
1908
1921
1938
1962
1969
1982
1989
2001
2019
2034
2059
2064
2067
2065
2057
2046
2047
2061
2090
2112
2105
2099
2092
2085
2093
2096
2111
2113
2121
2124
2128
2135
2144
2154
2161
2171
2177
2182
2189
2197
2213
2230
2250
2259
2270
2279
2293
2316
2330
2341
2357
2370
2386
2402
2416
2426
2445
2482
2515
2544
2559
2559
2559
2559
2559
2549
2556
2551
2554
2544
2523
2506
2486
2465
2454
2437
2418
2393
2368
2354
2335
2304
2277
2246
2224
2198
2176
2146
2123
2098
2085
2077
2065
2055
2043
2032
2018
2011
2006
2010
2015
2011
2010
2000
1981
1970
1965
1966
1973
1973
1974
1968
1963
1958
1953
1952
1953
1954
1960
1969
1958
1936
1934
1941
1937
1947
1948
1939
1932
1920
1920
1914
1915
1917
1927
1931
1929
1929
1927
1925
1923
1925
1935
1945
1951
1951
1954
1959
1957
1959
1972
1983
1985
1977
1968
1962
1956
1963
1964
1971
1971
1974
1984
1991
2001
2004
2014
2017
2022
2026
2032
2032
2029
2032
2039
2043
2044
2035
2029
2023
2022
2006
1999
1984
1979
1968
1951
1946
1931
1908
1891
1888
1899
1903
1903
1892
1881
1878
1888
1903
1904
1914
1918
1925
1930
1932
1936
1946
1957
1968
1968
1963
1948
1941
1933
1918
1904
1895
1904
1923
1949
1992
2037
2079
2111
2142
2186
2231
2272
2302
2322
2335
2320
2262
2160
2032
1904
1775
1666
1588
1535
1495
1482
1489
1511
1532
1570
1610
1649
1681
1725
1755
1787
1811
1837
1862
1900
1927
1955
1981
1994
1997
1997
2000
2010
2022
2028
2030
2035
2038
2042
2047
2064
2073
2086
2096
2102
2121
2114
2100
2091
2091
2095
2101
2107
2106
2103
2112
2121
2128
2145
2161
2181
2194
2206
2217
2231
2239
2246
2256
2281
2305
2319
2323
2340
2352
2365
2385
2407
2426
2445
2452
2470
2483
2498
2513
2534
2543
2554
2551
2557
2551
2554
2559
2558
2544
2527
2522
2512
2518
2512
2474
2443
2409
2374
2341
2307
2274
2247
2221
2194
2160
2158
2134
2108
2090
2064
2039
2029
2021
2008
2000
1984
1968
1946
1929
1916
1908
1904
1901
1894
1886
1889
1893
1916
1921
1905
1887
1868
1857
1855
1853
1851
1856
1872
1885
1894
1898
1900
1895
1889
1875
1872
1877
1885
1891
1890
1885
1880
1874
1877
1877
1883
1885
1872
1863
1861
1857
1872
1885
1891
1881
1878
1877
1874
1875
1872
1870
1873
1889
1910
1919
1925
1922
1923
1919
1908
1903
1889
1885
1885
1895
1904
1909
1932
1957
1965
1957
1955
1952
1950
1955
1966
1974
1984
1986
1984
1974
1968
1967
1966
1961
1953
1939
1921
1903
1891
1874
1866
1860
1856
1858
1850
1849
1851
1855
1856
1849
1837
1834
1829
1829
1831
1842
1854
1859
1856
1853
1849
1843
1843
1842
1841
1840
1840
1838
1826
1811
1807
1803
1813
1852
1904
1967
2025
2071
2115
2164
2203
2231
2270
2294
2304
2284
2215
2101
1968
1836
1713
1616
1530
1462
1419
1399
1399
1419
1453
1488
1529
1566
1598
1629
1663
1697
1738
1780
1814
1850
1863
1872
1876
1903
1927
1925
1926
1935
1935
1936
1936
1941
1949
1952
1957
1967
1980
1986
1984
1984
1984
1993
1999
2002
2017
2022
2027
2034
2041
2058
2061
2065
2087
2113
2112
2107
2105
2112
2127
2139
2151
2161
2163
2167
2178
2193
2223
2252
2279
2306
2337
2355
2380
2389
2400
2416
2428
2433
2446
2449
2467
2483
2481
2482
2482
2484
2486
2489
2482
2469
2453
2433
2417
2400
2389
2378
2378
2359
2319
2284
2240
2217
2192
2160
2143
2121
2099
2091
2075
2064
2042
2043
2027
2001
1983
1958
1945
1936
1925
1911
1903
1885
1872
1874
1883
1890
1899
1899
1904
1914
1918
1900
1870
1841
1840
1855
1871
1872
1872
1863
1871
1872
1871
1867
1861
1859
1861
1860
1860
1844
1840
1837
1843
1856
1850
1839
1826
1826
1818
1823
1829
1842
1841
1859
1879
1863
1842
1837
1839
1847
1856
1858
1866
1872
1871
1869
1872
1871
1875
1889
1898
1904
1909
1920
1927
1923
1919
1904
1891
1892
1899
1902
1905
1911
1910
1912
1906
1899
1903
1914
1899
1885
1875
1860
1842
1821
1799
1791
1782
1783
1789
1791
1787
1782
1771
1765
1776
1776
1776
1795
1797
1782
1776
1777
1781
1776
1778
1783
1789
1787
1792
1791
1791
1791
1789
1779
1772
1758
1746
1754
1782
1829
1882
1923
1955
1971
1981
2000
2032
2069
2096
2085
2046
1948
1831
1712
1606
1509
1431
1380
1348
1333
1330
1346
1362
1392
1439
1486
1530
1584
1631
1683
1717
1744
1779
1808
1840
1866
1879
1886
1899
1909
1904
1907
1909
1905
1909
1910
1907
1913
1919
1930
1940
1949
1968
1975
1973
1969
1967
1971
1984
1991
2000
2005
2009
2027
2032
2033
2033
2037
2046
2059
2064
2064
2058
2063
2081
2101
2131
2154
2166
2177
2183
2193
2220
2252
2287
2309
2321
2349
2367
2368
2369
2374
2382
2399
2429
2451
2451
2448
2442
2442
2434
2423
2416
2407
2387
2369
2353
2333
2320
2301
2283
2273
2255
2223
2185
2157
2130
2112
2090
2064
2041
2027
2014
1996
1975
1961
1936
1919
1919
1914
1886
1865
1851
1839
1840
1856
1844
1849
1840
1840
1825
1826
1827
1834
1838
1840
1814
1803
1791
1796
1809
1813
1809
1810
1808
1802
1797
1800
1808
1809
1805
1805
1799
1781
1770
1760
1767
1767
1776
1793
1808
1810
1804
1808
1808
1799
1787
1775
1767
1769
1776
1794
1808
1821
1833
1840
1845
1846
1840
1837
1839
1846
1861
1874
1888
1886
1879
1873
1867
1857
1858
1856
1859
1872
1886
1904
1907
1886
1874
1865
1856
1847
1841
1827
1811
1799
1785
1777
1780
1797
1803
1799
1799
1804
1808
1818
1817
1811
1807
1805
1794
1797
1797
1808
1811
1806
1814
1826
1830
1824
1815
1811
1808
1814
1819
1820
1808
1815
1808
1798
1806
1810
1836
1868
1894
1921
1951
1985
2019
2037
2064
2075
2046
1979
1894
1783
1669
1569
1481
1424
1387
1358
1350
1360
1391
1422
1461
1494
1521
1558
1613
1653
1681
1707
1743
1781
1807
1823
1831
1840
1851
1859
1872
1879
1889
1891
1906
1916
1927
1936
1938
1943
1943
1941
1936
1933
1934
1936
1947
1961
1971
1971
1969
1982
1998
2001
2003
2004
2007
2007
2015
2014
2015
2036
2079
2080
2073
2083
2090
2092
2090
2096
2111
2130
2160
2176
2194
2205
2222
2230
2242
2260
2294
2320
2328
2346
2361
2368
2391
2416
2423
2417
2418
2405
2385
2366
2357
2342
2331
2323
2318
2298
2275
2251
2229
2203
2185
2163
2146
2118
2091
2059
2029
2003
1985
1956
1930
1917
1903
1895
1888
1893
1887
1885
1884
1872
1860
1859
1861
1867
1856
1845
1841
1850
1840
1814
1798
1791
1791
1794
1793
1797
1797
1799
1792
1789
1792
1806
1814
1815
1821
1812
1814
1809
1807
1800
1795
1799
1808
1812
1814
1792
1775
1771
1769
1773
1778
1789
1793
1803
1814
1819
1822
1824
1835
1843
1843
1839
1829
1829
1835
1840
1847
1855
1857
1863
1867
1877
1894
1901
1902
1895
1886
1879
1872
1874
1884
1897
1902
1903
1901
1901
1897
1911
1907
1895
1878
1868
1852
1839
1821
1799
1793
1793
1802
1808
1802
1797
1797
1787
1779
1779
1782
1783
1789
1790
1791
1793
1795
1802
1809
1818
1823
1831
1837
1840
1840
1840
1831
1817
1810
1805
1805
1810
1826
1859
1899
1936
1978
2007
2047
2078
2097
2113
2128
2137
2112
2063
1982
1886
1782
1687
1615
1535
1491
1471
1472
1477
1493
1518
1554
1585
1623
1681
1732
1774
1798
1818
1840
1855
1863
1879
1903
1923
1936
1949
1955
1958
1959
1967
1975
1983
1990
1997
2000
2003
2005
2004
2008
2015
2021
2036
2063
2079
2070
2054
2046
2064
2074
2078
2075
2079
2086
2086
2096
2112
2131
2147
2156
2149
2141
2149
2160
2182
2210
2234
2255
2267
2275
2295
2317
2342
2370
2394
2413
2416
2422
2442
2463
2480
2483
2506
2525
2522
2503
2484
2479
2479
2474
2472
2465
2455
2461
2457
2435
2414
2384
2357
2337
2317
2288
2258
2234
2210
2191
2172
2154
2126
2091
2069
2047
2033
2027
2019
2007
2001
1996
1978
1981
1983
1971
1963
1950
1936
1925
1925
1929
1931
1941
1942
1943
1947
1949
1945
1945
1937
1936
1937
1939
1938
1936
1927
1920
1909
1917
1924
1921
1935
1957
1945
1927
1915
1905
1897
1909
1904
1903
1902
1904
1903
1894
1899
1913
1927
1929
1920
1914
1916
1909
1915
1920
1925
1931
1957
1962
1963
1953
1951
1946
1950
1946
1951
1950
1951
1951
1953
1968
1983
1998
2000
2000
1997
1998
2003
2017
2028
2030
2025
2027
2016
2000
1989
1988
1984
1981
1975
1957
1946
1950
1937
1919
1907
1899
1891
1898
1884
1872
1867
1867
1868
1872
1877
1886
1891
1902
1902
1903
1904
1917
1904
1893
1889
1891
1887
1879
1879
1886
1891
1904
1914
1899
1883
1877
1894
1917
1954
1997
2053
2097
2145
2189
2229
2258
2283
2290
2283
2237
2157
2032
1908
1792
1699
1637
1589
1535
1511
1504
1519
1531
1555
1591
1619
1650
1683
1713
1734
1765
1802
1841
1903
1940
1955
1950
1942
1938
1947
1955
1968
1980
1991
2003
2006
2013
2013
2019
2023
2030
2033
2031
2027
2032
2042
2047
2063
2079
2101
2113
2114
2112
2109
2114
2146
2157
2149
2144
2149
2154
2151
2156
2170
2190
2201
2211
2233
2243
2259
2263
2269
2285
2295
2325
2361
2382
2390
2416
2432
2454
2476
2480
2489
2495
2499
2503
2509
2514
2521
2517
2531
2531
2513
2495
2476
2466
2448
2437
2425
2403
2374
2346
2321
2288
2265
2254
2240
2218
2195
2163
2134
2105
2083
2064
2038
2029
2007
2000
1989
1965
1947
1935
1934
1931
1927
1915
1904
1904
1919
1939
1937
1930
1915
1901
1881
1871
1871
1869
1873
1883
1885
1887
1877
1872
1871
1870
1871
1876
1889
1901
1891
1891
1879
1875
1872
1872
1872
1872
1877
1872
1886
1904
1891
1873
1858
1851
1833
1831
1823
1823
1826
1839
1842
1839
1837
1824
1829
1827
1831
1833
1838
1836
1840
1849
1845
1843
1846
1856
1860
1873
1891
1895
1893
1897
1914
1922
1910
1904
1900
1905
1916
1919
1920
1920
1925
1933
1937
1945
1953
1966
1967
1967
1967
1961
1950
1951
1939
1926
1915
1903
1903
1889
1886
1869
1845
1830
1821
1817
1840
1843
1839
1827
1825
1815
1821
1817
1809
1821
1831
1838
1840
1840
1840
1840
1838
1841
1846
1851
1858
1856
1851
1847
1840
1828
1819
1813
1808
1817
1846
1881
1930
1998
2039
2082
2113
2155
2187
2214
2225
2236
2223
2166
2063
1929
1802
1680
1583
1500
1440
1398
1392
1394
1414
1446
1485
1521
1555
1589
1621
1661
1701
1744
1789
1812
1826
1838
1846
1861
1877
1893
1903
1907
1911
1919
1927
1938
1949
1955
1947
1942
1951
1953
1963
1973
1989
1997
2002
2000
1985
1987
1988
1997
2013
2042
2063
2069
2077
2075
2078
2085
2098
2128
2152
2152
2150
2160
2169
2182
2207
2228
2244
2247
2245
2247
2257
2274
2299
2325
2353
2378
2401
2421
2441
2457
2477
2503
2523
2535
2537
2531
2516
2497
2487
2481
2477
2470
2477
2477
2450
2423
2404
2384
2365
2342
2320
2289
2261
2229
2199
2176
2159
2144
2128
2099
2076
2054
2021
1996
1974
1969
1969
1965
1934
1910
1891
1882
1874
1872
1877
1885
1874
1859
1850
1842
1842
1845
1851
1853
1850
1847
1841
1835
1826
1815
1813
1814
1813
1813
1815
1815
1825
1834
1834
1828
1827
1831
1837
1822
1811
1813
1818
1817
1811
1813
1821
1818
1814
1810
1816
1820
1823
1833
1824
1819
1814
1810
1808
1799
1806
1815
1820
1826
1825
1826
1828
1825
1829
1831
1833
1833
1841
1836
1829
1826
1840
1843
1844
1840
1841
1845
1856
1865
1866
1863
1869
1872
1867
1869
1868
1872
1878
1879
1885
1890
1894
1899
1913
1936
1943
1946
1945
1954
1947
1949
1952
1951
1947
1952
1948
1941
1936
1936
1926
1919
1910
1906
1903
1893
1872
1862
1856
1846
1841
1838
1840
1839
1840
1831
1822
1826
1833
1836
1839
1839
1838
1839
1849
1863
1857
1856
1871
1871
1868
1861
1853
1840
1830
1823
1819
1836
1856
1886
1933
1980
2023
2063
2099
2132
2176
2203
2237
2256
2273
2247
2176
2064
1943
1823
1691
1587
1516
1459
1415
1408
1425
1460
1491
1527
1567
1598
1628
1653
1685
1723
1759
1787
1821
1842
1861
1872
1898
1910
1933
1941
1952
1959
1961
1963
1984
1994
1997
1993
1993
1986
1995
2000
2014
2027
2029
2032
2027
2031
2033
2032
2034
2034
2054
2059
2047
2047
2053
2047
2047
2064
2083
2099
2116
2141
2175
2199
2210
2221
2227
2239
2247
2256
2271
2288
2304
2329
2352
2377
2394
2412
2430
2443
2450
2464
2478
2482
2483
2501
2486
2469
2450
2443
2446
2448
2435
2422
2407
2386
2363
2339
2330
2320
2304
2288
2287
2273
2249
2224
2189
2154
2113
2085
2064
2071
2064
2023
1987
1957
1936
1921
1910
1904
1881
1863
1843
1823
1812
1815
1828
1843
1859
1872
1889
1899
1906
1915
1904
1879
1859
1853
1843
1831
1827
1822
1823
1813
1792
1774
1747
1742
1755
1771
1791
1803
1795
1783
1775
1779
1813
1843
1854
1846
1826
1805
1792
1791
1799
1808
1823
1835
1843
1842
1843
1854
1861
1855
1849
1850
1840
1809
1786
1774
1773
1772
1770
1756
1743
1744
1769
1807
1842
1870
1875
1885
1894
1890
1876
1872
1863
1843
1831
1826
1831
1845
1879
1938
1965
1946
1918
1898
1875
1872
1867
1866
1870
1872
1877
1873
1871
1878
1888
1898
1908
1932
1953
1978
2000
2010
2015
1994
1954
1909
1898
1907
1927
1942
1972
1978
1965
1943
1909
1873
1856
1851
1853
1853
1862
1872
1882
1885
1879
1872
1891
1904
1904
1914
1915
1895
1834
1776
1737
1742
1765
1818
1870
1904
1915
1887
1852
1819
1799
1797
1820
1845
1881
1921
1967
2001
2035
2059
2065
2068
2074
2110
2151
2161
2158
2122
2043
1936
1819
1712
1609
1519
1451
1378
1325
1318
1355
1423
1487
1535
1583
1611
1637
1666
1722
1770
1806
1835
1863
1893
1919
1926
1935
1953
1977
2000
2023
2032
2033
2023
2000
1975
1955
1943
1966
2000
2034
2064
2087
2082
2079
2093
2097
2090
2082
2075
2078
2074
2087
2128
2135
2128
2125
2120
2116
2131
2149
2162
2176
2161
2144
2128
2134
2170
2208
2247
2275
2289
2305
2329
2353
2342
2352
2366
2398
2419
2446
2477
2490
2490
2485
2490
2496
2515
2534
2544
2543
2519
2499
2479
2459
2451
2449
2437
2431
2406
2374
2341
2305
2285
2257
2229
2201
2162
2124
2081
2047
2031
2002
1984
1965
1953
1947
1926
1909
1898
1879
1857
1845
1825
1806
1783
1771
1766
1756
1755
1766
1765
1759
1755
1744
1741
1741
1744
1735
1715
1714
1712
1697
1697
1712
1730
1751
1738
1735
1724
1718
1714
1717
1718
1744
1744
1733
1719
1708
1695
1693
1690
1690
1689
1687
1686
1683
1683
1686
1699
1711
1706
1712
1719
1723
1728
1729
1731
1731
1732
1732
1728
1744
1747
1745
1739
1728
1728
1739
1739
1728
1716
1712
1712
1725
1743
1746
1749
1770
1776
1776
1776
1781
1792
1805
1813
1805
1799
1797
1808
1807
1807
1808
1826
1840
1851
1861
1871
1881
1889
1894
1913
1932
1923
1909
1895
1875
1861
1857
1855
1847
1835
1820
1808
1792
1771
1770
1776
1782
1792
1793
1790
1789
1802
1815
1825
1831
1828
1823
1814
1810
1808
1821
1828
1841
1855
1852
1860
1857
1842
1839
1833
1808
1792
1776
1759
1758
1781
1824
1877
1922
1964
1997
2015
2038
2055
2082
2110
2125
2111
2047
1963
1854
1745
1652
1585
1531
1509
1482
1470
1459
1458
1463
1489
1521
1566
1601
1642
1671
1708
1741
1777
1815
1842
1863
1883
1902
1908
1917
1920
1937
1959
1975
1995
2017
2027
2027
2023
2027
2019
2015
2021
2018
2020
2043
2054
2039
2027
2017
2014
2003
2002
2013
2027
2033
2059
2079
2096
2112
2134
2150
2160
2165
2176
2190
2213
2235
2247
2256
2275
2278
2276
2283
2307
2343
2383
2414
2433
2449
2464
2477
2496
2513
2531
2544
2558
2559
2592
2608
2620
2624
2629
2629
2618
2610
2591
2584
2559
2558
2527
2483
2453
2431
2415
2414
2407
2387
2358
2330
2299
2258
2225
2192
2161
2135
2117
2114
2114
2113
2109
2089
2064
2054
2061
2055
2043
2030
2016
2005
2015
2032
2031
2033
2031
2032
2031
2026
2016
2009
2003
2001
2013
2011
2000
1993
1991
1987
1969
1967
1982
1990
1997
2000
2000
1996
1993
1989
1984
1973
1952
1937
1930
1938
1955
1982
1990
1987
1985
1986
1981
1971
1967
1963
1967
1970
1974
1973
1971
1965
1964
1973
1982
1982
1969
1949
1933
1921
1917
1931
1948
1968
1991
1995
1997
1995
1999
2000
2000
2007
2011
2017
2033
2031
2017
2018
2032
2035
2037
2038
2041
2039
2032
2034
2046
2064
2066
2073
2078
2071
2058
2031
2013
2003
2007
2001
1999
1986
1980
1969
1967
1968
1972
1984
1985
1979
1982
1959
1933
1915
1920
1910
1907
1909
1917
1918
1911
1907
1900
1894
1894
1902
1911
1919
1927
1930
1930
1942
1938
1934
1919
1919
1908
1914
1940
1977
2013
2054
2081
2111
2135
2169
2197
2224
2240
2229
2176
2081
1961
1856
1754
1680
1627
1595
1567
1552
1535
1535
1558
1588
1633
1650
1680
1712
1749
1787
1808
1826
1852
1883
1907
1920
1931
1941
1957
1968
1985
2000
2005
2000
1986
1982
1980
1975
1978
1984
1995
2004
2003
1997
1997
2000
2015
2034
2053
2063
2064
2057
2061
2071
2063
2053
2047
2061
2074
2086
2098
2107
2118
2135
2160
2182
2192
2197
2212
2223
2240
2245
2253
2258
2279
2295
2302
2320
2333
2353
2374
2415
2445
2447
2448
2448
2453
2448
2459
2469
2479
2480
2486
2481
2480
2474
2448
2415
2391
2371
2354
2339
2322
2288
2248
2220
2191
2163
2140
2112
2095
2066
2045
2023
2002
1983
1962
1950
1962
1966
1946
1926
1909
1890
1879
1874
1865
1878
1883
1877
1875
1872
1868
1862
1857
1851
1851
1849
1837
1845
1856
1857
1846
1825
1799
1791
1785
1786
1787
1791
1794
1808
1819
1826
1808
1794
1793
1795
1797
1794
1781
1781
1775
1783
1791
1792
1792
1798
1805
1807
1803
1792
1786
1793
1801
1811
1808
1806
1813
1820
1831
1831
1833
1839
1850
1869
1872
1859
1840
1825
1825
1814
1810
1808
1815
1831
1837
1840
1851
1861
1858
1857
1850
1855
1856
1866
1862
1855
1842
1835
1830
1823
1842
1856
1872
1887
1890
1879
1877
1897
1920
1941
1973
1967
1947
1934
1921
1909
1903
1893
1889
1887
1893
1904
1902
1889
1873
1860
1865
1867
1856
1853
1846
1845
1828
1822
1821
1817
1809
1808
1815
1808
1804
1801
1826
1830
1815
1811
1808
1811
1807
1804
1801
1807
1818
1816
1805
1793
1783
1783
1805
1826
1868
1915
1979
2032
2078
2114
2154
2192
2224
2250
2269
2246
2176
2057
1914
1787
1657
1563
1507
1477
1425
1413
1424
1428
1446
1473
1515
1559
1594
1616
1657
1701
1739
1776
1808
1833
1848
1863
1877
1887
1893
1900
1909
1921
1936
1937
1939
1945
1955
1954
1974
1979
1969
1968
1959
1936
1930
1937
1946
1968
1986
2005
2013
2021
2047
2064
2054
2059
2065
2070
2080
2089
2103
2119
2135
2143
2151
2165
2181
2190
2201
2209
2227
2243
2261
2288
2315
2335
2367
2383
2384
2393
2405
2418
2443
2459
2467
2485
2499
2512
2531
2535
2530
2519
2503
2483
2466
2450
2448
2445
2442
2430
2419
2399
2385
2387
2385
2352
2313
2271
2226
2187
2141
2110
2090
2062
2032
2014
1997
1984
1968
1963
1967
1968
1950
1939
1930
1919
1904
1898
1894
1897
1885
1877
1874
1869
1866
1866
1867
1868
1866
1882
1878
1865
1842
1827
1821
1822
1835
1828
1825
1823
1819
1817
1818
1817
1814
1815
1818
1815
1823
1839
1840
1825
1814
1811
1811
1818
1818
1817
1808
1798
1812
1822
1835
1815
1807
1807
1799
1795
1805
1808
1808
1813
1815
1819
1814
1817
1821
1824
1836
1839
1835
1841
1843
1838
1829
1823
1814
1810
1817
1818
1817
1814
1798
1802
1809
1818
1834
1854
1867
1877
1895
1906
1904
1903
1907
1914
1919
1910
1904
1899
1898
1899
1911
1921
1936
1950
1951
1961
1961
1967
1971
1977
1979
1983
1968
1955
1941
1938
1936
1936
1936
1949
1954
1935
1908
1909
1907
1895
1873
1862
1856
1843
1844
1843
1840
1846
1856
1857
1858
1863
1859
1865
1860
1871
1872
1872
1869
1859
1856
1855
1857
1866
1871
1868
1863
1859
1859
1856
1843
1843
1859
1888
1931
1979
2035
2078
2099
2135
2167
2203
2219
2242
2255
2243
2199
2112
1999
1872
1749
1648
1575
1506
1455
1424
1421
1429
1461
1494
1520
1554
1583
1616
1648
1686
1731
1776
1814
1856
1901
1919
1931
1929
1930
1936
1946
1953
1958
1963
1970
1971
1981
1983
1984
1990
1990
1999
2005
2012
2015
2027
2032
2035
2042
2043
2058
2067
2079
2085
2099
2099
2097
2096
2099
2112
2128
2134
2139
2149
2158
2175
2178
2185
2205
2212
2223
2245
2259
2275
2288
2306
2330
2361
2375
2396
2411
2430
2448
2465
2468
2479
2478
2482
2494
2503
2501
2502
2500
2501
2514
2525
2508
2480
2448
2416
2391
2361
2341
2316
2295
2275
2256
2237
2207
2178
2160
2147
2122
2093
2061
2032
2019
2002
1984
1970
1968
1985
1979
1958
1951
1939
1931
1933
1926
1919
1910
1899
1889
1879
1879
1885
1888
1879
1871
1858
1849
1831
1831
1831
1840
1845
1850
1854
1849
1843
1839
1838
1835
1838
1850
1843
1827
1823
1823
1824
1833
1840
1840
1838
1838
1834
1826
1819
1817
1813
1808
1808
1814
1823
1837
1840
1836
1823
1808
1800
1798
1803
1808
1807
1810
1808
1808
1808
1821
1841
1849
1845
1840
1843
1843
1829
1821
1812
1812
1813
1819
1824
1833
1833
1838
1846
1850
1846
1856
1872
1875
1879
1875
1879
1901
1911
1904
1894
1899
1889
1901
1926
1931
1922
1920
1919
1917
1907
1906
1914
1933
1955
1968
1972
1981
1987
1984
1976
1973
1968
1961
1957
1955
1950
1953
1938
1937
1921
1903
1875
1857
1862
1881
1872
1857
1851
1843
1842
1841
1840
1836
1840
1839
1841
1835
1838
1839
1842
1849
1857
1873
1873
1866
1869
1872
1879
1886
1883
1877
1875
1863
1840
1827
1838
1882
1918
1943
1964
1998
2015
2031
2063
2091
2112
2128
2135
2114
2064
1973
1857
1742
1647
1573
1508
1457
1411
1398
1408
1438
1463
1489
1533
1571
1605
1639
1666
1707
1772
1823
1854
1872
1894
1904
1914
1925
1938
1956
1973
1985
1984
1981
1975
1973
1977
1987
1991
2000
2007
2023
2030
2031
2032
2032
2030
2018
2023
2026
2032
2035
2046
2070
2082
2085
2081
2077
2081
2079
2075
2066
2074
2092
2109
2132
2143
2160
2186
2205
2218
2224
2246
2277
2293
2302
2321
2346
2362
2368
2379
2390
2416
2448
2458
2459
2452
2466
2469
2482
2486
2479
2467
2470
2455
2448
2448
2444
2422
2401
2371
2346
2317
2285
2256
2235
2221
2198
2177
2154
2135
2111
2094
2081
2065
2059
2043
2019
1989
1965
1951
1946
1939
1930
1925
1920
1924
1915
1894
1873
1872
1858
1855
1844
1839
1840
1838
1846
1853
1860
1855
1853
1856
1849
1841
1836
1845
1855
1874
1861
1840
1837
1840
1834
1820
1815
1813
1813
1811
1825
1833
1832
1833
1831
1834
1837
1830
1826
1833
1838
1846
1857
1872
1875
1873
1873
1869
1861
1856
1854
1872
1872
1872
1862
1854
1845
1839
1828
1823
1835
1839
1837
1837
1838
1841
1856
1869
1875
1888
1878
1858
1856
1858
1863
1865
1874
1883
1904
1909
1904
1901
1893
1895
1904
1894
1887
1874
1867
1862
1869
1890
1904
1919
1938
1951
1968
1971
1968
1959
1959
1971
1979
1983
1980
1968
1952
1953
1957
1936
1919
1906
1894
1883
1872
1867
1872
1872
1866
1866
1858
1858
1856
1860
1872
1883
1883
1887
1894
1904
1904
1907
1904
1895
1895
1894
1897
1883
1871
1871
1872
1874
1874
1867
1859
1844
1837
1856
1879
1925
1968
1987
2002
2017
2033
2064
2091
2107
2117
2121
2097
2053
1965
1870
1763
1664
1597
1535
1492
1469
1485
1487
1503
1524
1556
1587
1621
1656
1691
1715
1746
1776
1803
1833
1862
1891
1911
1925
1937
1967
1977
1979
1983
1974
1975
1985
1985
1985
2000
2006
2018
2025
2025
2017
2013
2018
2020
2031
2032
2033
2035
2034
2032
2032
2047
2064
2078
2085
2107
2112
2115
2117
2119
2126
2121
2137
2151
2162
2171
2186
2209
2229
2255
2259
2290
2303
2311
2326
2343
2365
2386
2416
2432
2449
2466
2470
2478
2485
2490
2496
2498
2502
2521
2527
2515
2499
2470
2445
2427
2405
2399
2381
2353
2334
2310
2294
2270
2250
2228
2213
2188
2165
2140
2108
2079
2047
2023
2010
1998
1979
1959
1963
1967
1937
1911
1904
1898
1881
1873
1871
1872
1876
1879
1877
1885
1882
1881
1872
1874
1887
1895
1898
1903
1903
1895
1885
1874
1863
1856
1851
1846
1839
1833
1854
1865
1852
1844
1838
1840
1839
1839
1841
1835
1840
1851
1862
1865
1858
1849
1838
1825
1825
1827
1828
1836
1843
1851
1855
1856
1862
1866
1872
1873
1859
1845
1835
1834
1831
1833
1840
1858
1872
1867
1863
1856
1846
1851
1863
1868
1870
1871
1871
1872
1879
1889
1895
1899
1905
1907
1914
1907
1904
1891
1881
1887
1901
1915
1936
1949
1936
1930
1923
1926
1940
1958
1969
1979
1984
1974
1969
1965
1963
1970
1966
1955
1941
1940
1941
1941
1934
1921
1915
1883
1863
1853
1846
1847
1850
1862
1856
1851
1855
1856
1856
1857
1857
1867
1872
1871
1870
1873
1878
1891
1895
1903
1900
1894
1883
1867
1859
1867
1855
1856
1867
1897
1918
1951
1973
2005
2032
2067
2096
2125
2151
2177
2192
2204
2196
2163
2087
1980
1872
1776
1696
1621
1578
1535
1513
1502
1500
1511
1524
1535
1581
1611
1639
1677
1711
1743
1790
1829
1847
1867
1890
1911
1929
1950
1968
1985
1991
1989
1985
1983
1989
1988
1999
2001
2001
2003
2016
2031
2037
2034
2039
2055
2053
2044
2043
2057
2064
2069
2070
2080
2091
2096
2112
2122
2138
2149
2147
2148
2149
2155
2151
2163
2177
2186
2207
2225
2245
2273
2289
2303
2325
2345
2366
2403
2433
2443
2447
2451
2465
2480
2499
2510
2515
2523
2523
2522
2518
2512
2512
2518
2512
2503
2489
2475
2453
2429
2410
2389
2370
2349
2314
2287
2260
2238
2217
2188
2160
2137
2112
2095
2074
2042
2023
2015
2004
2005
1988
1954
1931
1919
1909
1907
1901
1904
1908
1904
1904
1902
1895
1900
1899
1902
1909
1904
1895
1886
1876
1874
1871
1875
1883
1889
1894
1898
1889
1885
1876
1869
1870
1878
1883
1893
1882
1870
1859
1855
1846
1847
1842
1834
1840
1840
1842
1850
1857
1872
1875
1872
1854
1840
1839
1838
1834
1839
1845
1849
1855
1851
1854
1863
1878
1881
1868
1863
1857
1863
1872
1874
1874
1871
1863
1856
1862
1859
1855
1855
1859
1872
1877
1878
1876
1886
1893
1901
1910
1914
1919
1920
1921
1905
1911
1898
1905
1909
1930
1962
1970
1967
1968
1970
1970
1970
1979
1983
1973
1967
1968
1970
1973
1965
1957
1958
1951
1947
1936
1921
1909
1903
1903
1904
1887
1863
1856
1851
1852
1856
1858
1856
1869
1872
1872
1872
1854
1846
1856
1857
1858
1860
1858
1856
1856
1850
1845
1855
1857
1853
1856
1847
1843
1840
1845
1859
1887
1926
1968
2016
2061
2095
2147
2192
2214
2233
2244
2245
2224
2167
2065
1936
1809
1691
1599
1521
1467
1422
1399
1408
1426
1456
1491
1530
1561
1585
1616
1648
1682
1723
1769
1802
1836
1858
1878
1900
1926
1955
1967
1965
1959
1955
1951
1949
1966
1974
1986
1989
1981
1975
1978
1986
2006
2019
2032
2039
2053
2054
2053
2039
2039
2045
2061
2063
2071
2081
2084
2095
2112
2121
2113
2112
2113
2125
2133
2142
2159
2169
2192
2227
2241
2251
2265
2287
2302
2318
2337
2361
2381
2399
2431
2456
2471
2487
2498
2516
2545
2553
2546
2534
2529
2525
2535
2538
2528
2512
2493
2466
2442
2422
2399
2384
2375
2363
2341
2309
2277
2255
2228
2199
2174
2145
2112
2077
2044
2038
2006
1989
1975
1967
1957
1968
1957
1935
1915
1893
1882
1874
1869
1873
1869
1862
1858
1855
1849
1850
1847
1847
1845
1840
1840
1834
1831
1834
1841
1853
1856
1846
1839
1833
1819
1821
1828
1837
1830
1840
1831
1818
1821
1835
1850
1855
1842
1826
1822
1811
1803
1792
1797
1810
1827
1831
1837
1827
1815
1815
1820
1820
1823
1824
1815
1830
1821
1809
1811
1819
1830
1843
1849
1856
1859
1836
1831
1827
1823
1819
1820
1827
1831
1839
1840
1847
1861
1868
1879
1884
1878
1876
1878
1873
1873
1889
1904
1914
1914
1915
1918
1922
1921
1924
1935
1921
1918
1919
1914
1914
1922
1936
1936
1941
1945
1947
1950
1962
1969
1980
1981
1981
1978
1970
1959
1962
1965
1962
1954
1939
1924
1918
1904
1890
1871
1859
1854
1853
1859
1884
1885
1865
1859
1862
1863
1857
1840
1830
1825
1829
1831
1840
1850
1858
1865
1866
1863
1857
1862
1879
1889
1875
1861
1849
1837
1835
1840
1863
1907
1967
2039
2093
2105
2113
2128
2159
2190
2214
2238
2240
2199
2114
1989
1868
1747
1651
1591
1527
1483
1456
1440
1435
1450
1473
1507
1535
1584
1607
1632
1669
1703
1741
1775
1811
1845
1872
1894
1907
1933
1963
1967
1965
1961
1955
1963
1967
1977
1990
2011
2020
2015
2017
2011
2003
1997
1998
2005
2029
2042
2043
2045
2045
2046
2047
2064
2071
2085
2090
2096
2112
2119
2125
2127
2128
2138
2153
2175
2197
2210
2227
2242
2245
2256
2277
2288
2308
2331
2352
2371
2391
2411
2431
2451
2469
2481
2503
2519
2516
2518
2519
2523
2525
2527
2513
2498
2480
2466
2451
2439
2427
2413
2386
2371
2352
2327
2308
2288
2265
2240
2208
2178
2155
2127
2101
2079
2059
2033
2017
2004
1991
1979
1965
1946
1943
1934
1926
1936
1936
1923
1906
1887
1872
1871
1869
1871
1871
1870
1868
1869
1874
1874
1872
1869
1863
1865
1863
1859
1856
1854
1854
1850
1845
1843
1843
1858
