2002
2006
2000
2000
2015
2018
1994
1959
1934
1923
1931
1939
1968
1994
1993
1968
1943
1930
1921
1929
1943
1963
1982
1969
1938
1920
1920
1927
1939
1955
1956
1924
1872
1827
1808
1810
1851
1909
1985
2062
2115
2164
2223
2314
2432
2589
2740
2864
2926
2934
2913
2869
2795
2691
2555
2402
2224
2035
1891
1793
1742
1717
1713
1723
1730
1728
1723
1739
1766
1801
1838
1867
1879
1865
1850
1842
1850
1853
1863
1889
1904
1897
1872
1847
1843
1853
1856
1875
1905
1919
1907
1891
1885
1904
1934
1959
1985
1995
1977
1949
1926
1930
1943
1967
1987
2007
2004
1984
1966
1958
1981
2014
2071
2118
2127
2106
2079
2069
2081
2095
2123
2170
2209
2222
2210
2214
2243
2282
2313
2351
2368
2373
2354
2341
2343
2354
2384
2411
2422
2409
2368
2347
2325
2310
2304
2301
2314
2317
2277
2227
2193
2182
2165
2159
2167
2178
2159
2112
2068
2045
2037
2037
2038
2045
2031
1985
1943
1929
1936
1954
1969
1987
1984
1957
1926
1894
1883
1889
1903
1919
1930
1909
1885
1871
1872
1877
1891
1913
1926
1924
1898
1867
1850
1850
1856
1871
1890
1898
1872
1840
1820
1825
1840
1869
1902
1922
1899
1854
1814
1799
1809
1829
1849
1858
1845
1815
1799
1803
1814
1827
1840
1856
1856
1834
1795
1783
1793
1806
1828
1856
1872
1857
1814
1781
1776
1796
1815
1839
1856
1848
1822
1794
1783
1781
1782
1805
1840
1861
1856
1837
1812
1805
1808
1823
1840
1854
1840
1819
1799
1794
1810
1842
1867
1894
1899
1874
1843
1831
1840
1855
1872
1902
1909
1903
1898
1909
1921
1931
1943
1968
1982
1964
1935
1919
1927
1950
1965
1968
1983
1968
1930
1890
1867
1861
1861
1871
1902
1922
1914
1878
1850
1838
1840
1838
1866
1889
1881
1860
1839
1831
1840
1856
1887
1917
1918
1890
1843
1793
1766
1762
1779
1808
1834
1866
1890
1922
1981
2064
2159
2287
2426
2545
2661
2754
2815
2850
2863
2845
2799
2697
2522
2329
2149
1984
1851
1754
1694
1658
1629
1613
1600
1610
1638
1677
1722
1757
1767
1760
1747
1750
1776
1801
1831
1859
1865
1847
1816
1799
1808
1822
1840
1869
1882
1871
1845
1829
1824
1842
1867
1904
1931
1926
1895
1868
1859
1867
1871
1887
1915
1922
1919
1913
1919
1933
1953
1979
1986
2011
1995
1971
1959
1968
1983
2013
2058
2096
2112
2113
2102
2112
2146
2190
2237
2288
2306
2288
2271
2279
2302
2321
2349
2378
2389
2368
2339
2322
2315
2308
2307
2319
2323
2304
2270
2240
2220
2210
2205
2203
2207
2187
2151
2112
2092
2079
2067
2059
2061
2055
2032
1990
1950
1933
1928
1929
1936
1937
1922
1902
1875
1866
1863
1861
1866
1882
1901
1900
1883
1874
1874
1881
1898
1920
1930
1915
1887
1860
1841
1844
1856
1877
1904
1901
1859
1824
1818
1825
1840
1858
1883
1885
1871
1840
1815
1803
1807
1831
1856
1862
1844
1815
1795
1792
1803
1819
1843
1862
1854
1825
1791
1779
1791
1808
1827
1855
1857
1847
1819
1781
1769
1776
1790
1810
1825
1818
1803
1787
1786
1792
1811
1831
1851
1850
1829
1807
1791
1797
1805
1823
1854
1856
1837
1817
1798
1795
1807
1827
1856
1872
1859
1838
1827
1840
1863
1887
1913
1938
1935
1909
1891
1886
1890
1893
1906
1934
1940
1926
1904
1882
1879
1886
1897
1916
1926
1900
1854
1827
1814
1811
1815
1835
1855
1856
1840
1827
1835
1854
1872
1887
1902
1887
1856
1825
1808
1818
1841
1869
1899
1899
1856
1795
1745
1733
1765
1814
1894
1953
1990
2014
2061
2126
2219
2327
2477
2626
2731
2768
2779
2765
2741
2688
2583
2443
2294
2128
1959
1824
1729
1677
1648
1652
1664
1664
1661
1673
1692
1716
1753
1791
1824
1843
1837
1808
1797
1799
1812
1828
1851
1867
1856
1833
1819
1829
1846
1867
1886
1904
1904
1887
1856
1840
1855
1877
1904
1937
1939
1942
1907
1895
1906
1919
1932
1953
1978
1978
1964
1953
1958
1977
1998
2035
2069
2077
2062
2044
2047
2074
2099
2128
2176
2193
2191
2173
2170
2194
2239
2290
2336
2371
2368
2347
2327
2333
2351
2363
2380
2387
2375
2352
2322
2309
2303
2302
2303
2304
2286
2246
2207
2173
2163
2171
2179
2186
2177
2143
2093
2047
2021
2018
2026
2035
2053
2033
2000
1973
1955
1956
1963
1968
1983
1984
1962
1920
1902
1914
1931
1948
1968
1969
1937
1919
1904
1904
1920
1936
1962
1978
1963
1927
1904
1897
1909
1918
1925
1938
1936
1904
1870
1862
1862
1866
1873
1895
1910
1907
1881
1859
1853
1853
1854
1870
1893
1904
1894
1874
1861
1859
1869
1891
1904
1899
1873
1856
1841
1840
1844
1866
1879
1887
1869
1839
1807
1798
1818
1850
1877
1903
1892
1866
1840
1823
1827
1840
1854
1873
1874
1852
1826
1813
1810
1837
1870
1909
1931
1915
1890
1872
1872
1877
1893
1919
1935
1931
1913
1904
1904
1918
1931
1945
1969
1970
1943
1920
1915
1925
1936
1950
1968
1971
1939
1902
1875
1872
1874
1883
1903
1926
1921
1904
1874
1859
1863
1875
1901
1934
1937
1907
1878
1867
1871
1888
1907
1931
1936
1910
1870
1834
1812
1814
1818
1840
1876
1899
1905
1925
1962
2025
2103
2212
2336
2462
2556
2624
2679
2729
2754
2755
2726
2645
2487
2304
2131
1984
1875
1796
1753
1735
1719
1691
1666
1670
1711
1747
1776
1807
1815
1806
1791
1782
1791
1812
1840
1861
1887
1870
1853
1840
1838
1855
1872
1893
1911
1914
1882
1858
1861
1872
1894
1918
1923
1929
1895
1869
1859
1874
1904
1935
1965
1974
1959
1933
1923
1942
1971
1993
2023
2055
2045
2021
2000
1985
2000
2035
2081
2121
2143
2140
2128
2129
2150
2179
2207
2239
2263
2259
2240
2224
2235
2266
2295
2321
2353
2354
2320
2283
2262
2266
2265
2266
2283
2279
2243
2205
2177
2163
2157
2147
2149
2147
2119
2075
2037
2017
2009
2000
2012
2029
2017
1985
1952
1921
1919
1931
1940
1960
1963
1939
1916
1897
1888
1887
1903
1918
1923
1902
1875
1863
1860
1866
1866
1875
1906
1918
1902
1873
1865
1872
1902
1922
1925
1927
1910
1888
1872
1869
1872
1875
1895
1907
1893
1871
1855
1842
1849
1862
1875
1897
1896
1873
1839
1810
1808
1811
1834
1861
1872
1875
1867
1840
1822
1817
1843
1882
1905
1904
1876
1850
1839
1831
1840
1863
1890
1899
1887
1873
1855
1842
1853
1860
1882
1904
1904
1893
1887
1886
1893
1910
1936
1962
1955
1924
1903
1900
1904
1909
1931
1955
1951
1921
1887
1875
1887
1908
1939
1968
1966
1927
1879
1857
1861
1869
1876
1900
1914
1899
1871
1846
1830
1826
1830
1856
1891
1902
1879
1853
1837
1837
1839
1856
1882
1887
1867
1843
1825
1814
1802
1794
1805
1827
1837
1840
1862
1904
1951
2002
2069
2158
2252
2343
2431
2512
2579
2627
2661
2687
2672
2592
2451
2314
2187
2067
1970
1904
1840
1782
1734
1706
1693
1713
1744
1778
1805
1807
1788
1765
1757
1770
1786
1802
1825
1840
1827
1802
1791
1799
1808
1823
1841
1863
1849
1825
1819
1839
1855
1872
1895
1920
1904
1855
1831
1838
1857
1873
1888
1913
1920
1904
1888
1883
1895
1918
1942
1967
1986
1983
1974
1965
1963
1974
1999
2023
2060
2064
2053
2041
2055
2083
2112
2141
2173
2178
2160
2150
2153
2161
2176
2192
2228
2263
2267
2243
2213
2199
2208
2224
2251
2276
2265
2222
2163
2134
2128
2142
2149
2143
2129
2103
2064
2031
2031
2030
2029
2032
2032
2010
1968
1938
1926
1923
1923
1927
1938
1941
1917
1888
1875
1883
1894
1909
1939
1955
1934
1895
1859
1872
1895
1910
1925
1933
1920
1904
1890
1884
1887
1897
1912
1934
1935
1910
1877
1856
1849
1857
1871
1903
1932
1935
1923
1903
1885
1877
1873
1881
1891
1883
1875
1862
1850
1843
1845
1856
1878
1887
1875
1851
1826
1827
1841
1861
1872
1884
1859
1838
1834
1845
1870
1885
1901
1904
1889
1877
1863
1858
1861
1860
1867
1887
1898
1879
1863
1867
1872
1884
1903
1927
1934
1900
1867
1867
1879
1903
1926
1954
1978
1971
1947
1918
1916
1927
1951
1968
1986
1984
1954
1914
1883
1883
1890
1901
1920
1943
1935
1905
1884
1875
1875
1893
1917
1927
1911
1879
1851
1830
1839
1871
1899
1919
1915
1901
1879
1864
1857
1849
1847
1858
1882
1901
1915
1948
1987
2032
2087
2172
2273
2367
2444
2498
2551
2607
2643
2657
2646
2592
2459
2297
2166
2063
1973
1910
1869
1834
1797
1773
1757
1761
1789
1815
1843
1862
1849
1835
1825
1829
1835
1851
1873
1906
1918
1904
1867
1838
1840
1869
1895
1917
1933
1914
1882
1860
1861
1880
1903
1926
1955
1956
1931
1904
1889
1901
1921
1947
1981
1995
1982
1953
1936
1939
1962
1984
2006
2018
2011
1997
1983
1982
1998
2018
2033
2064
2069
2061
2059
2070
2089
2114
2160
2202
2219
2199
2165
2151
2166
2187
2201
2224
2240
2233
2203
2185
2186
2189
2192
2193
2199
2190
2160
2143
2140
2151
2149
2137
2123
2099
2064
2032
2023
2034
2033
2031
2034
2027
2011
1989
1968
1957
1965
1972
1984
1989
1968
1943
1927
1920
1923
1926
1933
1951
1963
1952
1933
1920
1909
1908
1923
1947
1958
1941
1905
1891
1889
1886
1893
1925
1957
1965
1953
1937
1930
1936
1947
1954
1963
1962
1931
1897
1872
1871
1882
1905
1923
1932
1917
1882
1853
1858
1879
1904
1923
1936
1927
1907
1883
1866
1859
1866
1885
1903
1915
1907
1903
1891
1893
1899
1903
1922
1939
1925
1894
1870
1863
1879
1905
1933
1951
1953
1929
1904
1899
1906
1922
1955
1983
1997
1973
1945
1924
1932
1936
1949
1974
1980
1949
1918
1904
1914
1919
1925
1924
1931
1920
1891
1871
1861
1872
1883
1887
1891
1889
1875
1873
1874
1894
1906
1925
1945
1955
1939
1919
1895
1885
1893
1902
1914
1919
1904
1875
1859
1861
1890
1936
1989
2060
2121
2169
2223
2308
2407
2481
2535
2603
2634
2624
2581
2503
2405
2303
2193
2103
2033
1969
1902
1840
1805
1795
1808
1833
1859
1877
1871
1852
1840
1849
1863
1883
1913
1925
1911
1889
1872
1865
1867
1882
1913
1935
1934
1919
1902
1893
1897
1904
1915
1939
1954
1937
1919
1903
1904
1919
1928
1951
1979
1975
1954
1936
1943
1964
1979
1995
2004
1995
1981
1975
1984
2003
2029
2063
2094
2096
2077
2055
2057
2076
2096
2112
2145
2171
2173
2165
2162
2174
2192
2214
2242
2258
2252
2230
2218
2207
2215
2223
2224
2239
2233
2211
2176
2155
2151
2146
2148
2157
2155
2127
2089
2065
2061
2059
2056
2064
2071
2059
2010
1982
1969
1975
1974
1983
2002
2006
1984
1965
1946
1947
1953
1956
1970
1980
1966
1936
1914
1913
1917
1933
1954
1973
1970
1946
1921
1905
1904
1903
1923
1953
1969
1950
1930
1910
1906
1913
1925
1943
1953
1951
1910
1887
1883
1895
1905
1919
1941
1942
1921
1893
1878
1878
1892
1904
1919
1923
1910
1887
1870
1863
1863
1872
1893
1911
1904
1901
1890
1886
1901
1920
1925
1932
1923
1904
1884
1872
1874
1887
1904
1922
1919
1895
1873
1881
1903
1923
1951
1979
1995
1984
1947
1935
1936
1946
1950
1968
1988
1994
1977
1953
1936
1935
1931
1936
1955
1963
1951
1935
1919
1909
1907
1916
1930
1938
1932
1904
1879
1871
1872
1885
1911
1943
1951
1930
1904
1883
1883
1891
1917
1939
1937
1920
1904
1889
1877
1876
1874
1891
1919
1935
1936
1938
1970
2021
2095
2173
2263
2363
2434
2487
2532
2586
2618
2624
2612
2559
2442
2291
2143
2029
1930
1854
1813
1797
1777
1747
1728
1729
1746
1782
1831
1870
1872
1855
1840
1835
1840
1855
1872
1907
1921
1903
1871
1846
1853
1865
1886
1911
1933
1936
1917
1901
1901
1919
1938
1959
1968
1964
1939
1920
1915
1919
1932
1954
1982
2000
1999
1985
1975
1968
1968
1982
2004
2033
2043
2023
2000
1995
2022
2055
2094
2129
2141
2129
2128
2141
2163
2179
2207
2245
2269
2262
2246
2237
2247
2270
2288
2317
2325
2314
2286
2260
2256
2256
2256
2256
2256
2251
2225
2185
2155
2150
2159
2160
2160
2161
2155
2120
2077
2038
2032
2039
2047
2058
2033
2000
1978
1967
1968
1971
1979
1985
1981
1967
1950
1925
1911
1910
1923
1953
1971
1962
1935
1920
1923
1933
1936
1950
1959
1955
1933
1907
1904
1903
1904
1916
1936
1931
1911
1892
1872
1869
1872
1883
1889
1882
1866
1849
1840
1852
1871
1885
1904
1920
1904
1871
1841
1826
1824
1840
1863
1888
1899
1878
1853
1837
1834
1840
1869
1897
1908
1892
1856
1837
1838
1845
1856
1872
1889
1879
1851
1825
1829
1845
1851
1871
1899
1904
1886
1865
1852
1862
1878
1891
1924
1939
1930
1909
1903
1905
1922
1936
1955
1978
1969
1952
1936
1936
1945
1958
1968
1973
1967
1931
1888
1862
1870
1883
1899
1921
1929
1904
1871
1856
1862
1861
1865
1882
1901
1895
1870
1858
1855
1870
1882
1893
1908
1899
1874
1860
1851
1851
1841
1829
1837
1858
1853
1857
1887
1936
2000
2069
2150
2247
2342
2431
2523
2606
2667
2693
2704
2704
2666
2559
2414
2271
2143
2025
1934
1865
1799
1723
1669
1648
1659
1697
1744
1782
1811
1809
1797
1780
1775
1792
1813
1835
1865
1872
1856
1841
1837
1841
1849
1861
1887
1907
1898
1871
1852
1854
1862
1876
1898
1920
1915
1899
1885
1889
1901
1916
1938
1965
1968
1955
1934
1920
1927
1948
1974
2000
2017
2004
1983
1974
1990
2010
2033
2074
2103
2112
2098
2079
2086
2113
2140
2163
2205
2239
2247
2241
2243
2265
2288
2307
2334
2339
2329
2307
2295
2290
2299
2309
2320
2334
2315
2285
2254
2229
2217
2211
2224
2244
2239
2192
2145
2107
2085
2064
2055
2061
2061
2032
2001
1980
1979
1984
2001
2032
2041
2023
1989
1959
1936
1931
1941
1965
1984
1986
1958
1929
1907
1908
1915
1926
1947
1961
1946
1913
1885
1872
1872
1874
1894
1914
1915
1900
1874
1867
1866
1862
1866
1888
1897
1874
1849
1840
1846
1857
1857
1869
1872
1859
1840
1813
1801
1801
1809
1838
1870
1872
1853
1836
1822
1821
1826
1837
1856
1858
1838
1811
1803
1811
1822
1845
1874
1886
1863
1837
1810
1810
1821
1831
1849
1863
1855
1839
1819
1811
1829
1844
1861
1884
1894
1889
1875
1874
1887
1914
1933
1952
1968
1961
1935
1909
1907
1911
1920
1935
1956
1954
1925
1889
1861
1859
1867
1872
1878
1875
1856
1840
1829
1819
1818
1825
1829
1819
1805
1802
1809
1829
1850
1872
1899
1911
1887
1846
1823
1825
1847
1862
1871
1872
1851
1808
1767
1744
1759
1805
1863
1937
2002
2059
2110
2175
2273
2405
2557
2693
2785
2805
2788
2763
2723
2661
2547
2415
2269
2112
1943
1808
1713
1669
1647
1645
1670
1696
1714
1724
1733
1744
1760
1782
1808
1829
1824
1803
1785
1781
1792
1806
1831
1865
1867
1840
1808
1802
1823
1846
1869
1889
1905
1895
1877
1872
1870
1879
1890
1904
1920
1922
1909
1904
1906
1923
1940
1959
1984
1999
1991
1969
1950
1948
1963
1983
2009
2036
2041
2023
2015
2034
2067
2102
2133
2164
2177
2179
2192
2211
2238
2255
2279
2304
2320
2305
2291
2289
2301
2315
2325
2335
2349
2337
2302
2275
2262
2252
2246
2255
2266
2268
2246
2217
2191
2169
2160
2141
2143
2137
2112
2066
2021
2011
2003
2000
2000
1999
1979
1939
1917
1918
1930
1939
1959
1979
1969
1951
1932
1911
1914
1911
1915
1937
1954
1939
1923
1910
1904
1908
1917
1927
1934
1919
1891
1872
1862
1858
1856
1874
1899
1894
1870
1840
1827
1834
1843
1856
1872
1870
1847
1825
1806
1815
1844
1863
1876
1881
1871
1846
1829
1823
1830
1834
1845
1863
1856
1835
1809
1808
1817
1830
1840
1856
1856
1850
1837
1827
1833
1841
1842
1842
1846
1840
1825
1813
1815
1827
1843
1858
1882
1890
1877
1862
1857
1867
1874
1895
1915
1920
1914
1903
1902
1909
1924
1941
1975
1991
1989
1979
1953
1927
1917
1920
1931
1948
1947
1919
1886
1865
1863
1878
1899
1915
1919
1891
1849
1822
1826
1845
1861
1891
1904
1891
1865
1849
1844
1857
1870
1884
1907
1909
1884
1856
1834
1814
1787
1766
1774
1794
1813
1854
1922
2000
2077
2160
2257
2374
2495
2623
2735
2815
2864
2881
2867
2822
2727
2559
2384
2212
2063
1936
1846
1776
1721
1659
1616
1600
1626
1669
1723
1775
1808
1809
1791
1771
1775
1787
1795
1818
1846
1855
1843
1835
1827
1830
1849
1871
1902
1915
1905
1875
1859
1857
1871
1885
1904
1929
1927
1904
1885
1883
1899
1913
1939
1971
1979
1961
1940
1936
1950
1968
1989
2018
2034
2032
2020
2016
2033
2065
2096
2128
2161
2162
2147
2140
2150
2169
2192
2227
2263
2287
2281
2282
2298
2322
2350
2368
2394
2414
2399
2374
2357
2357
2365
2362
2365
2366
2343
2304
2261
2239
2227
2224
2226
2238
2223
2181
2138
2107
2091
2071
2064
2064
2071
2055
2018
1995
1983
1978
1970
1981
1987
1970
1936
1911
1916
1927
1936
1952
1969
1967
1931
1898
1883
1898
1914
1929
1948
1958
1936
1896
1876
1882
1887
1882
1897
1926
1927
1911
1893
1879
1882
1876
1886
1904
1908
1883
1850
1831
1834
1837
1841
1851
1867
1849
1813
1795
1799
1814
1829
1855
1866
1860
1850
1836
1825
1825
1834
1845
1861
1860
1836
1808
1799
1804
1811
1843
1879
1890
1872
1846
1822
1815
1819
1829
1856
1887
1879
1856
1843
1856
1865
1872
1877
1900
1904
1893
1877
1872
1878
1878
1887
1907
1936
1936
1919
1907
1915
1931
1936
1951
1968
1955
1927
1894
1877
1872
1872
1879
1894
1898
1887
1882
1872
1866
1857
1872
1875
1888
1883
1866
1847
1855
1873
1886
1902
1914
1904
1872
1849
1838
1841
1858
1870
1875
1858
1819
1775
1758
1779
1824
1885
1963
2029
2067
2101
2161
2271
2421
2579
2706
2798
2826
2806
2757
2674
2559
2433
2299
2175
2039
1915
1807
1717
1659
1631
1645
1668
1699
1706
1707
1716
1739
1770
1792
1809
1831
1835
1827
1815
1809
1811
1817
1830
1845
1847
1830
1817
1811
1808
1812
1841
1883
1919
1911
1893
1891
1903
1914
1921
1936
1947
1936
1903
1875
1873
1895
1926
1959
1991
2000
1982
1957
1937
1953
1974
2003
2046
2080
2064
2033
2018
2030
2047
2087
2128
2167
2175
2163
2174
2202
2241
2275
2306
2347
2358
2337
2309
2288
2298
2308
2326
2354
2367
2349
2309
2283
2271
2258
2251
2243
2227
2179
2123
2101
2112
2128
2143
2151
2150
2133
2093
2045
2014
2003
1999
2002
2015
2013
1989
1959
1935
1917
1902
1904
1904
1906
1904
1886
1885
1885
1893
1889
1893
1917
1925
1900
1869
1850
1863
1875
1895
1919
1924
1904
1876
1861
1866
1875
1877
1890
1915
1905
1881
1865
1857
1867
1867
1872
1900
1913
1895
1858
1833
1823
1820
1815
1840
1866
1858
1835
1810
1806
1807
1807
1834
1859
1856
1837
1825
1829
1827
1814
1816
1831
1838
1818
1799
1791
1795
1807
1827
1859
1885
1886
1859
1853
1858
1862
1853
1858
1872
1874
1863
1845
1822
1829
1862
1888
1919
1931
1921
1904
1899
1909
1925
1933
1927
1930
1901
1859
1826
1811
1815
1827
1847
1872
1871
1837
1794
1787
1805
1812
1839
1856
1855
1825
1798
1787
1805
1823
1839
1843
1883
1872
1852
1825
1810
1808
1802
1798
1798
1790
1781
1779
1806
1856
1909
1968
2047
2139
2236
2321
2416
2514
2607
2672
2713
2715
2663
2554
2410
2257
2125
1998
1902
1821
1744
1683
1648
1633
1633
1648
1687
1729
1762
1772
1761
1760
1771
1761
1771
1790
1811
1808
1782
1775
1769
1773
1789
1810
1842
1841
1828
1830
1839
1856
1856
1866
1878
1882
1862
1838
1827
1839
1847
1864
1888
1917
1921
1914
1904
1908
1906
1920
1943
1949
1923
1901
1882
1887
1909
1939
1981
2023
2041
2043
2043
2046
2039
2034
2063
2102
2139
2155
2151
2147
2163
2192
2205
2224
2254
2256
2218
2179
2182
2198
2207
2224
2239
2250
2231
2194
2144
2105
2089
2098
2112
2113
2095
2069
2031
1995
1990
1997
1999
2007
2000
1987
1965
1931
1915
1933
1967
1991
2003
1962
1904
1879
1872
1879
1888
1903
1905
1883
1863
1863
1871
1862
1851
1872
1904
1905
1873
1856
1862
1881
1879
1889
1911
1919
1893
1850
1815
1798
1805
1838
1882
1920
1923
1903
1875
1873
1885
1894
1907
1919
1904
1856
1814
1795
1802
1819
1834
1863
1878
1866
1833
1820
1822
1825
1826
1842
1864
1863
1850
1841
1839
1843
1854
1847
1840
1831
1818
1807
1799
1810
1826
1834
1841
1840
1827
1817
1808
1813
1822
1818
1840
1877
1893
1886
1872
1867
1858
1872
1888
1904
1909
1901
1877
1865
1858
1859
1876
1893
1889
1855
1816
1799
1792
1797
1807
1819
1818
1802
1787
1779
1783
1806
1836
1872
1891
1878
1846
1814
1802
1818
1842
1856
1865
1862
1835
1793
1760
1744
1737
1738
1810
1874
1919
1950
1984
2037
2130
2250
2366
2463
2523
2559
2559
2579
2587
2559
2519
2425
2303
2159
2018
1910
1835
1789
1771
1776
1790
1776
1753
1743
1744
1770
1804
1834
1866
1872
1854
1840
1840
1838
1840
1856
1877
1888
1868
1845
1829
1839
1860
1864
1882
1910
1904
1877
1869
1881
1903
1918
1919
1934
1932
1905
1890
1891
1909
1935
1957
1971
1970
1967
1948
1936
1941
1968
1997
2027
2047
2046
2014
2005
2008
2007
2031
2081
2112
2112
2100
2091
2094
2113
2150
2179
2222
2241
2226
2211
2206
2223
2240
2251
2266
2287
2255
2224
2212
2215
2223
2221
2231
2239
2217
2174
2125
2100
2098
2112
2119
2128
2125
2096
2046
2019
2015
2020
2015
2017
2030
2014
1982
1950
1947
1954
1963
1968
1984
1985
1963
1930
1903
1905
1923
1942
1959
1968
1940
1906
1887
1905
1940
1967
1983
1990
1979
1957
1935
1919
1919
1927
1947
1961
1953
1921
1882
1859
1867
1883
1898
1920
1935
1922
1904
1891
1893
1902
1911
1934
1949
1937
1904
1876
1876
1892
1905
1919
1936
1943
1921
1899
1878
1886
1902
1915
1933
1931
1919
1898
1881
1871
1874
1891
1917
1940
1949
1939
1936
1939
1951
1958
1970
1982
1979
1963
1949
1951
1968
1977
1989
2001
2000
1984
1959
1939
1929
1936
1961
1984
1987
1971
1943
1920
1894
1878
1883
1899
1926
1946
1938
1930
1921
1921
1923
1935
1951
1961
1950
1921
1900
1899
1904
1909
1922
1942
1930
1905
1875
1854
1854
1853
1859
1883
1906
1930
1953
1984
2044
2098
2162
2258
2359
2443
2501
2544
2595
2629
2643
2642
2599
2482
2334
2178
2043
1955
1888
1831
1808
1803
1776
1747
1743
1761
1778
1811
1863
1891
1871
1849
1840
1851
1859
1873
1898
1919
1916
1887
1871
1856
1855
1866
1887
1916
1911
1887
1873
1886
1907
1927
1943
1961
1965
1943
1922
1917
1919
1925
1936
1969
1991
1990
1963
1936
1921
1930
1957
1990
2027
2047
2032
2010
2009
2026
2036
2047
2071
2091
2096
2083
2085
2102
2128
2158
2203
2240
2243
2229
2223
2224
2237
2250
2275
2303
2304
2286
2263
2249
2240
2225
2215
2215
2225
2219
2190
2161
2145
2134
2130
2131
2130
2111
2079
2036
2013
2005
2000
2004
2013
2001
1979
1943
1911
1898
1902
1909
1939
1956
1938
1917
1907
1919
1937
1951
1971
1991
1973
1936
1907
1902
1913
1923
1938
1956
1951
1936
1919
1917
1920
1931
1947
1975
1980
1952
1917
1889
1874
1877
1883
1902
1920
1917
1907
1903
1897
1898
1899
1904
1919
1917
1891
1859
1851
1856
1871
1887
1910
1926
1915
1889
1862
1856
1859
1871
1889
1901
1885
1860
1846
1847
1856
1861
1874
1899
1908
1897
1874
1872
1879
1894
1910
1936
1943
1933
1913
1902
1903
1919
1938
1959
1983
1984
1968
1955
1951
1951
1949
1953
1973
1983
1967
1939
1919
1904
1903
1898
1897
1902
1893
1882
1863
1872
1895
1905
1915
1920
1910
1887
1866
1861
1867
1872
1883
1901
1911
1911
1906
1892
1889
1887
1883
1889
1882
1845
1808
1794
1807
1845
1904
1974
2046
2095
2112
2151
2231
2342
2467
2583
2675
2721
2709
2670
2609
2526
2421
2306
2201
2098
1983
1878
1796
1744
1719
1718
1739
1771
1786
1779
1776
1785
1809
1831
1841
1862
1867
1846
1835
1833
1845
1856
1863
1889
1904
1887
1860
1844
1847
1862
1885
1906
1922
1915
1893
1869
1856
1872
1897
1920
1950
1968
1958
1936
1922
1929
1930
1935
1947
1945
1931
1933
1947
1965
1987
2006
2036
2073
2079
2063
2039
2037
2059
2078
2102
2129
2153
2155
2145
2146
2161
2186
2207
2241
2285
2294
2283
2271
2267
2274
2281
2301
2317
2306
2278
2242
2217
2217
2212
2197
2193
2195
2187
2158
2115
2096
2089
2082
2094
2109
2096
2055
2014
2000
1997
1990
1993
2002
1995
1958
1925
1915
1933
1947
1964
1979
1975
1952
1920
1895
1901
1908
1926
1949
1966
1955
1931
1905
1888
1891
1904
1917
1930
1921
1902
1895
1901
1920
1933
1939
1954
1954
1933
1904
1889
1885
1885
1899
1929
1947
1941
1920
1906
1907
1917
1921
1925
1925
1909
1887
1872
1872
1891
1905
1911
1920
1917
1898
1872
1862
1868
1878
1887
1901
1911
1904
1887
1872
1872
1887
1904
1926
1954
1946
1904
1872
1866
1877
1904
1936
1971
1983
1963
1935
1914
1907
1915
1927
1959
1989
2000
1975
1943
1931
1933
1931
1946
1971
1979
1954
1933
1919
1916
1921
1937
1974
1987
1968
1932
1908
1904
1904
1904
1915
1925
1921
1899
1873
1869
1877
1891
1903
1920
1918
1901
1876
1872
1878
1884
1902
1923
1929
1904
1867
1840
1840
1851
1859
1874
1874
1853
1830
1818
1841
1897
1965
2036
2131
2211
2281
2365
2470
2599
2690
2757
2798
2795
2746
2660
2534
2423
2289
2160
2040
1939
1838
1757
1713
1693
1689
1691
1711
1750
1790
1794
1780
1782
1803
1826
1838
1853
1855
1833
1799
1801
1813
1829
1834
1842
1866
1875
1867
1849
1841
1838
1852
1882
1907
1919
1903
1889
1886
1891
1901
1906
1931
1947
1936
1925
1907
1918
1935
1936
1957
1982
1970
1946
1923
1920
1931
1951
1994
2039
2064
2047
2023
2019
2035
2064
2085
2119
2167
2192
2191
2191
2202
2231
2247
2267
2287
2290
2282
2269
2257
2265
2271
2284
2297
2289
2245
2192
2192
2219
2234
2235
2239
2226
2192
2147
2113
2096
2094
2086
2088
2091
2073
2032
1998
1984
1986
1999
1999
2001
1989
1958
1927
1909
1919
1931
1937
1950
1945
1918
1872
1846
1854
1882
1903
1920
1947
1950
1935
1909
1904
1909
1918
1920
1927
1925
1904
1885
1872
1871
1869
1873
1895
1901
1890
1869
1845
1838
1838
1840
1860
1878
1887
1867
1861
1856
1851
1851
1858
1872
1871
1854
1830
1829
1827
1823
1840
1873
1887
1862
1836
1818
1823
1837
1853
1879
1901
1889
1870
1853
1840
1837
1829
1840
1853
1867
1859
1851
1847
1857
1866
1885
1899
1902
1886
1866
1849
1844
1853
1859
1875
1907
1917
1909
1899
1893
1904
1913
1927
1953
1969
1954
1936
1935
1939
1944
1955
1968
1966
1947
1936
1919
1918
1927
1921
1921
1920
1904
1879
1859
1856
1872
1898
1918
1936
1936
1905
1873
1853
1859
1875
1889
1909
1917
1903
1879
1870
1872
1889
1904
1923
1936
1908
1855
1812
1797
1807
1821
1853
1914
1979
2015
2047
2098
2163
2257
2383
2535
2662
2730
2755
2758
2739
2699
2639
2544
2420
2261
2090
1927
1815
1764
1742
1733
1734
1739
1731
1733
1748
1776
1804
1826
1849
1853
1838
1824
1815
1805
1813
1833
1861
1888
1885
1863
1846
1854
1872
1885
1895
1908
1901
1878
1870
1872
1887
1901
1910
1935
1951
1943
1920
1900
1907
1930
1943
1962
1982
1989
1975
1966
1968
1971
1968
1977
2006
2033
2034
2007
2007
2023
2044
2064
2096
2121
2128
2125
2119
2139
2175
2211
2243
2281
2285
2271
2269
2272
2288
2317
2335
2352
2352
2334
2307
2288
2281
2282
2279
2275
2256
2226
2198
2181
2177
2176
2174
2173
2169
2133
2090
2042
2022
2023
2021
2035
2064
2060
2018
1972
1943
1935
1921
1920
1932
1947
1945
1928
1905
1890
1901
1910
1936
1957
1951
1923
1899
1885
1897
1904
1911
1930
1936
1908
1887
1887
1892
1883
1879
1890
1904
1902
1887
1874
1878
1890
1901
1910
1921
1905
1872
1846
1840
1849
1862
1871
1882
1892
1872
1850
1834
1840
1840
1851
1873
1885
1869
1834
1803
1797
1809
1834
1851
1856
1853
1845
1838
1837
1840
1840
1852
1869
1870
1856
1839
1831
1836
1840
1851
1865
1877
1872
1861
1858
1867
1875
1894
1915
1934
1931
1914
1894
1892
1909
1923
1936
1968
1983
1966
1937
1922
1925
1937
1953
1965
1968
1939
1904
1877
1873
1879
1894
1920
1935
1920
1893
1861
1839
1845
1882
1922
1949
1961
1942
1924
1911
1919
1923
1930
1952
1965
1948
1921
1899
1884
1879
1875
1872
1872
1865
1855
1854
1874
1941
2013
2093
2176
2256
2327
2395
2481
2590
2688
2763
2806
2815
2762
2647
2485
2320
2176
2047
1947
1867
1787
1712
1654
1637
1655
1702
1751
1798
1817
1808
1785
1773
1778
1802
1831
1866
1895
1897
1888
1873
1872
1872
1883
1902
1915
1913
1901
1882
1891
1882
1900
1922
1948
1963
1952
1936
1922
1935
1946
1962
1989
2005
2000
1975
1958
1947
1954
1975
2007
2044
2045
2023
2003
2007
2029
2043
2067
2087
2087
2071
2077
2096
2123
2145
2167
2197
2226
2226
2209
2203
2224
2258
2289
2330
2354
2352
2326
2315
2306
2314
2331
2338
2341
2331
2299
2262
2240
2234
2229
2225
2230
2210
2176
2149
2132
2129
2131
2126
2127
2128
2111
2064
2017
1988
1974
1971
1974
1984
1984
1966
1939
1927
1911
1905
1919
1936
1961
1958
1931
1905
1895
1895
1904
1921
1947
1947
1916
1876
1860
1882
1917
1936
1957
1957
1927
1886
1873
1881
1905
1936
1958
1953
1905
1855
1827
1830
1843
1860
1872
1888
1885
1856
1825
1818
1826
1838
1850
1863
1872
1856
1831
1813
1804
1802
1809
1830
1847
1840
1819
1797
1797
1807
1822
1838
1847
1840
1808
1791
1803
1826
1840
1853
1871
1874
1856
1830
1820
1831
1847
1851
1858
1876
1883
1875
1872
1876
1889
1895
1907
1931
1927
1899
1867
1854
1851
1857
1878
1898
1894
1870
1831
1811
1808
1817
1839
1861
1875
1873
1855
1837
1824
1837
1840
1843
1858
1840
1810
1810
1825
1845
1856
1867
1882
1885
1861
1823
1791
1775
1776
1781
1809
1856
1886
1904
1938
1990
2064
2134
2224
2335
2437
2512
2547
2594
2624
2635
2630
2597
2489
2335
2174
2032
1930
1840
1776
1749
1741
1717
1694
1685
1712
1748
1789
1821
1853
1858
1840
1815
1803
1808
1819
1847
1875
1885
1857
1831
1822
1837
1840
1850
1873
1899
1897
1875
1866
1871
1877
1889
1905
1924
1914
1902
1893
1889
1903
1915
1935
1956
1971
1953
1934
1923
1930
1937
1963
1995
2014
2006
1985
1971
1970
1989
2023
2067
2110
2122
2108
2092
2083
2097
2128
2161
2209
2235
2236
2223
2212
2224
2239
2267
2302
2319
2307
2281
2257
2246
2245
2250
2256
2262
2256
2225
2198
2183
2173
2160
2150
2157
2145
2106
2063
2034
2032
2042
2060
2078
2070
2032
1984
1939
1919
1923
1932
1947
1962
1939
1898
1858
1854
1879
1919
1940
1959
1959
1936
1904
1877
1872
1872
1873
1891
1910
1914
1890
1879
1875
1881
1891
1909
1925
1923
1902
1874
1860
1863
1867
1882
1903
1903
1879
1840
1817
1810
1837
1859
1879
1904
1899
1871
1856
1856
1872
1887
1901
1918
1915
1883
1843
1824
1825
1840
1863
1894
1903
1887
1871
1857
1855
1856
1872
1881
1903
1885
1859
1841
1842
1859
1885
1914
1940
1942
1919
1895
1878
1882
1893
1915
1951
1979
1978
1955
1933
1929
1936
1946
1967
1978
1959
1925
1902
1882
1874
1877
1891
1918
1919
1895
1875
1871
1879
1889
1900
1920
1930
1907
1885
1865
1869
1875
1885
1903
1925
1921
1901
1878
1867
1861
1866
1871
1877
1863
1823
1799
1803
1843
1892
1957
2016
2086
2142
2198
2278
2373
2479
2559
2649
2693
2695
2647
2559
2490
2391
2282
2169
2068
1969
1875
1794
1733
1699
1691
1712
1742
1760
1770
1775
1787
1808
1831
1846
1871
1889
1882
1859
1835
1822
1829
1849
1870
1891
1895
1885
1869
1856
1850
1851
1861
1890
1917
1919
1907
1902
1904
1913
1904
1911
1925
1931
1921
1941
1949
1954
1965
1978
1993
1989
1984
1986
1991
2006
2018
2029
2047
2070
2071
2064
2057
2047
2042
2042
2083
2135
2161
2172
2174
2181
2206
2234
2256
2279
2291
2282
2256
2241
2249
2256
2265
2285
2287
2262
2228
2203
2190
2187
2186
2186
2192
2181
2160
2128
2102
2084
2074
2077
2096
2100
2078
2046
2027
2013
1995
1984
1987
1999
1996
1975
1947
1937
1936
1939
1959
1975
1978
1965
1936
1923
1919
1920
1921
1930
1930
1921
1911
1907
1907
1915
1919
1931
1946
1939
1918
1899
1902
1907
1918
1926
1943
1942
1925
1919
1915
1914
1904
1907
1927
1935
1923
1904
1879
1878
1887
1905
1925
1936
1919
1898
1882
1872
1872
1867
1858
1872
1882
1901
1904
1897
1887
1889
1904
1911
1915
1904
1883
1872
1866
1866
1875
1901
1920
1922
1911
1904
1904
1910
1919
1941
1963
1962
1945
1939
1933
1936
1946
1970
1980
1984
1974
1972
1968
1968
1968
1968
1974
1974
1962
1934
1904
1899
1896
1908
1931
1937
1934
1907
1879
1867
1874
1901
1919
1936
1935
1919
1893
1879
1898
1904
1903
1916
1936
1936
1920
1907
1904
1894
1870
1854
1853
1846
1840
1856
1879
1922
1973
2035
2117
2197
2273
2358
2459
2559
2645
2704
2746
2758
2723
2638
2514
2381
2245
2112
1989
1910
1850
1801
1757
1728
1712
1714
1750
1801
1835
1851
1840
1815
1809
1815
1825
1852
1872
1872
1857
1839
1827
1823
1825
1843
1871
1887
1890
1886
1877
1885
1893
1901
1917
1933
1923
1910
1904
1906
1926
1938
1963
1981
1987
1975
1961
1947
1935
1924
1946
1979
1994
1993
1987
1983
1979
2000
2002
2038
2066
2070
2069
2071
2087
2106
2125
2150
2187
2211
2215
2211
2217
2227
2243
2266
2299
2313
2320
2319
2311
2305
2299
2294
2299
2304
2288
2261
2234
2217
2207
2210
2218
2219
2202
2174
2144
2129
2114
2115
2125
2126
2113
2094
2062
2031
2012
2000
1991
1988
1991
1983
1973
1970
1971
1969
1965
1969
1984
1983
1969
1959
1946
1935
1930
1936
1947
1955
1959
1949
1936
1936
1946
1965
1985
2000
1995
1966
1934
1921
1925
1934
1952
1971
1971
1962
1943
1931
1926
1929
1941
1955
1955
1936
1898
1873
1883
1879
1885
1902
1925
1936
1933
1917
1909
1903
1905
1919
1931
1931
1921
1904
1889
1881
1877
1891
1909
1913
1899
1888
1881
1881
1875
1887
1908
1919
1904
1898
1890
1891
1893
1903
1920
1947
1952
1937
1919
1918
1927
1936
1950
1967
1973
1972
1961
1955
1958
1955
1959
1980
1998
2000
1985
1967
1951
1933
1921
1927
1938
1933
1909
1893
1886
1885
1872
1872
1895
1919
1927
1920
1899
1885
1877
1883
1914
1933
1933
1931
1919
1910
1905
1906
1916
1922
1906
1877
1844
1822
1810
1810
1840
1899
1966
2017
2064
2115
2185
2269
2374
2509
2640
2718
2758
2763
2741
2694
2625
2535
2429
2304
2164
2023
1904
1811
1763
1745
1739
1735
1737
1733
1741
1749
1774
1797
1822
1837
1841
1841
1840
1842
1854
1859
1872
1877
1870
1866
1866
1872
1873
1877
1895
1919
1927
1921
1914
1906
1909
1907
1909
1938
1956
1950
1938
1937
1937
1933
1924
1935
1961
1968
1960
1963
1964
1968
1983
1995
2014
2027
2032
2037
2043
2059
2065
2067
2083
2118
2154
2169
2171
2178
2192
2211
2236
2261
2273
2277
2268
2271
2297
2315
2322
2329
2323
2318
2297
2275
2267
2256
2251
2259
2272
2262
2254
2226
2195
2163
2145
2143
2160
2160
2141
2114
2085
2047
2032
2032
2042
2053
2039
2018
1990
1969
1947
1939
1940
1958
1965
1954
1935
1917
1910
1919
1951
1981
1989
1978
1958
1937
1926
1927
1937
1952
1955
1937
1919
1904
1904
1920
1936
1951
1951
1939
1927
1907
1901
1883
1877
1894
1908
1910
1886
1865
1858
1872
1878
1895
1917
1922
1917
1901
1886
1885
1883
1885
1901
1903
1894
1888
1881
1877
1876
1874
1889
1902
1903
1887
1876
1878
1875
1874
1888
1904
1918
1916
1916
1895
1883
1871
1869
1878
1901
1911
1914
1906
1899
1887
1879
1887
1911
1919
1923
1914
1905
1906
1906
1922
1955
1971
1983
1984
1978
1975
1968
1951
1959
1982
2001
2006
2000
2001
2000
1990
1983
1989
1989
1986
1975
1963
1943
1927
1921
1939
1952
1952
1936
1915
1891
1893
1901
1925
1952
1964
1943
1930
1922
1923
1931
1941
1950
1947
1923
1905
1905
1904
1894
1882
1871
1863
1854
1853
1882
1929
1983
2041
2121
2210
2302
2402
2527
2661
2765
2842
2894
2911
2885
2819
2709
2577
2421
2257
2110
1984
1889
1808
1742
1689
1665
1665
1691
1755
1814
1851
1859
1856
1846
1829
1822
1840
1849
1866
1878
1877
1864
1856
1872
1895
1935
1968
1974
1954
1936
1924
1915
1917
1938
1967
1973
1962
1939
1931
1929
1934
1950
1973
1995
1994
1985
1982
1975
1974
1987
2016
2047
2061
2036
2021
2021
2027
2043
2089
2117
2128
2131
2131
2139
2149
2175
2205
2230
2251
2256
2256
2262
2287
2311
2341
2383
2413
2416
2416
2409
2395
2382
2368
2384
2402
2405
2397
2371
2342
2314
2288
2298
2324
2328
2304
2278
2251
2224
2207
2203
2210
2199
2172
2151
2121
2097
2079
2067
2077
2093
2096
2081
2047
2023
2013
2000
2003
2026
2032
2032
2025
2003
1985
1969
1972
1997
2013
2013
1998
1986
1981
1971
1979
2000
2002
1999
1984
1970
1964
1953
1943
1954
1974
1984
1974
1965
1949
1925
1909
1914
1929
1936
1939
1937
1935
1926
1920
1923
1935
1946
1939
1927
1902
1899
1899
1905
1919
1932
1925
1911
1898
1895
1891
1887
1893
1929
1940
1947
1937
1929
1931
1933
1937
1946
1943
1941
1936
1923
1913
1902
1892
1900
1923
1936
1943
1939
1936
1931
1937
1945
1957
1962
1941
1924
1925
1937
1950
1965
1995
2018
2015
2001
1987
1978
1978
1979
1999
2017
2019
2002
1985
1973
1967
1955
1954
1965
1966
1946
1934
1920
1918
1917
1931
1953
1969
1958
1946
1936
1923
1914
1909
1922
1946
1954
1937
1919
1905
1913
1923
1931
1953
1968
1945
1910
1882
1859
1840
1835
1853
1899
1951
2000
2042
2089
2149
2227
2324
2448
2559
2672
2740
2783
2800
2799
2767
2683
2538
2369
2207
2060
1949
1869
1808
1777
1751
1735
1728
1726
1730
1743
1766
1798
1834
1851
1855
1849
1839
1837
1840
1855
1879
1911
1913
1906
1898
1892
1875
1856
1857
1875
1899
1910
1905
1899
1906
1918
1930
1946
1953
1950
1938
1936
1934
1934
1939
1963
1971
1968
1957
1949
1950
1936
1936
1953
1983
1997
2005
2032
2064
2080
2082
2111
2144
2153
2146
2140
2139
2148
2151
2166
2194
2230
2256
2271
2277
2286
2288
2285
2301
2320
2320
2309
2304
2307
2299
2294
2304
2311
2304
2267
2230
2199
2191
2181
2182
2189
2187
2174
2138
2096
2053
2023
2019
2032
2041
2022
1991
1960
1941
1935
1931
1930
1935
1937
1933
1926
1921
1913
1883
1872
1902
1922
1920
1913
1907
1904
1900
1904
1920
1935
1932
1909
1884
1872
1867
1853
1849
1860
1867
1861
1851
1843
1842
1842
1849
1867
1887
1886
1875
1857
1841
1839
1839
1831
1840
1849
1859
1862
1849
1856
1850
1857
1872
1872
1856
1839
1827
1827
1817
1827
1847
1853
1851
1856
1851
1847
1846
1842
1853
1875
1873
1855
1827
1808
1818
1826
1831
1850
1861
1857
1840
1826
1823
1826
1840
1851
1873
1877
1873
1869
1856
1850
1863
1896
1920
1935
1923
1911
1903
1904
1914
1926
1941
1947
1939
1923
1906
1898
1884
1867
1874
1887
1886
1871
1844
1840
1840
1854
1867
1878
1883
1871
1856
1853
1851
1846
1856
1878
1894
1903
1897
1877
1863
1854
1856
1872
1872
1872
1865
1837
1807
1790
1795
1814
1840
1874
1915
1968
2011
2064
2121
2206
2321
2459
2559
2654
2691
2703
2682
2651
2602
2499
2366
2213
2047
1909
1810
1763
1744
1745
1744
1743
1737
1737
1747
1771
1791
1816
1827
1830
1809
1787
1779
1787
1813
1854
1871
1863
1856
1843
1837
1835
1838
1864
1887
1886
1869
1855
1851
1857
1868
1890
1920
1937
1945
1942
1918
1900
1902
1921
1939
1955
1940
1920
1915
1925
1943
1968
2001
2030
2038
2027
2011
2005
2007
2017
2031
2059
2080
2081
2063
2059
2080
2105
2128
2158
2173
2176
2170
2167
2176
2186
2198
2233
2273
2267
2239
2207
2194
2197
2201
2217
2226
2224
2210
2197
2177
2155
2133
2128
2131
2128
2117
2096
2062
2032
2019
1997
1989
1995
1995
1973
1947
1927
1901
1885
1892
1920
1927
1909
1893
1893
1898
1889
1891
1920
1936
1931
1911
1886
1882
1872
1859
1863
1888
1899
1901
1904
1909
1913
1907
1910
1919
1921
1909
1885
1870
1872
1863
1856
1878
1891
1904
1899
1899
1889
1887
1874
1875
1878
1866
1861
1849
1841
1842
1846
1861
1881
1872
1862
1861
1858
1859
1867
1874
1883
1883
1873
1870
1868
1861
1851
1843
1859
1875
1872
1857
1845
1837
1843
1862
1879
1906
1917
1904
1878
1863
1860
1857
1872
1905
1921
1910
1890
1872
1876
1887
1894
1920
1949
1965
1955
1930
1904
1884
1872
1877
1914
1945
1953
1937
1916
1905
1899
1875
1866
1858
1853
1860
1871
1874
1883
1883
1889
1895
1891
1883
1874
1867
1861
1869
1882
1892
1882
1872
1872
1867
1861
1869
1889
1909
1904
1863
1840
1835
1839
1856
1878
1915
1970
2014
2063
2107
2146
2219
2323
2448
2551
2611
2637
2630
2592
2536
2471
2373
2277
2182
2074
1968
1884
1827
1783
1761
1785
1811
1831
1827
1813
1808
1807
1807
1815
1842
1858
1862
1857
1849
1846
1842
1857
1883
1895
1887
1873
1854
1829
1814
1824
1844
1872
1904
1906
1890
1872
1875
1879
1898
1915
1922
1923
1910
1903
1894
1894
1904
1926
1936
1928
1915
1909
1911
1920
1931
1954
1981
1991
2000
2001
2001
2000
2005
2029
2063
2078
2078
2075
2075
2069
2078
2099
2139
2162
2174
2175
2176
2179
2180
2179
2192
2221
2223
2211
2191
2177
2172
2170
2183
2191
2192
2176
2146
2112
2089
2071
2064
2067
2071
2061
2035
2016
1998
1982
1963
1968
1983
1970
1941
1919
1907
1906
1909
1923
1935
1931
1910
1899
1889
1890
1903
1919
1932
1936
1920
1909
1897
1874
1870
1879
1899
1911
1906
1881
1864
1871
1874
1873
1881
1897
1898
1891
1871
1852
1857
1860
1873
1893
1907
1913
1897
1873
1856
1824
1833
1821
1843
1870
1870
1856
1840
1822
1814
1822
1840
1856
1856
1840
1833
1839
1840
1841
1842
1850
1853
1843
1840
1847
1854
1856
1867
1875
1879
1871
1847
1831
1820
1825
1851
1886
1887
1867
1856
1856
1870
1875
1875
1893
1904
1907
1889
1867
1862
1874
1892
1924
1953
1961
1954
1939
1920
1907
1904
1911
1935
1947
1937
1911
1887
1869
1856
1843
1852
1866
1861
1851
1857
1863
1861
1872
1895
1915
1895
1856
1839
1840
1854
1860
1869
1887
1901
1895
1875
1872
1876
1879
1875
1857
1838
1805
1775
1761
1792
1840
1899
1957
2002
2030
2057
2102
2177
2274
2387
2491
2559
2608
2602
2559
2514
2467
2368
2261
2162
2059
1937
1840
1766
1728
1711
1710
1735
1771
1779
1770
1754
1765
1791
1801
1809
1817
1821
1810
1803
1802
1810
1823
1833
1845
1852
1834
1814
1818
1835
1845
1856
1872
1886
1876
1855
1831
1826
1840
1857
1879
1910
1926
1920
1904
1898
1905
1913
1920
1927
1931
1922
1911
1913
1926
1942
1963
1983
2001
2007
2006
2003
2005
2023
2041
2065
2096
2100
2089
2072
2065
2091
2113
2147
2194
2234
2235
2223
2217
2226
2243
2262
2284
2283
2253
2211
2179
2164
2162
2163
2177
2187
2163
2131
2107
2094
2096
2098
2105
2096
2075
2033
2003
1975
1963
1962
1968
1982
1995
1975
1936
1904
1899
1909
1921
1941
1973
1973
1938
1906
1878
1877
1892
1905
1925
1929
1919
1904
1891
1885
1889
1893
1911
1931
1926
1898
1873
1872
1875
1899
1917
1916
1915
1893
1862
1847
1855
1862
1883
1919
1924
1911
1878
1858
1863
1863
1865
1877
1881
1872
1855
1840
1839
1845
1851
1863
1879
1877
1863
1846
1843
1851
1853
1859
1877
1882
1865
1839
1824
1836
1851
1858
1883
1901
1885
1854
1837
1840
1865
1887
1887
1877
1881
1874
1858
1849
1850
1853
1866
1886
1899
1882
1867
1853
1838
1842
1870
1902
1933
1935
1909
1894
1894
1904
1909
1927
1947
1952
1943
1924
1919
1918
1921
1938
1980
1994
1978
1953
1934
1936
1935
1936
1942
1951
1937
1914
1886
1872
1877
1885
1904
1934
1940
1920
1883
1868
1883
1890
1891
1905
1919
1904
1888
1888
1899
1902
1905
1918
1931
1911
1873
1843
1825
1811
1806
1824
1868
1904
1933
1968
2005
2073
2162
2279
2406
2531
2615
2658
2698
2722
2711
2689
2653
2559
2424
2255
2096
1967
1869
1802
1771
1759
1751
1741
1728
1740
1762
1786
1808
1838
1846
1853
1847
1840
1844
1857
1871
1887
1898
1887
1861
1843
1843
1857
1872
1901
1927
1935
1917
1899
1890
1888
1894
1913
1939
1968
1968
1943
1927
1932
1943
1959
1979
1989
1971
1953
1936
1939
1967
1998
2029
2059
2059
2033
2014
2014
2041
2065
2094
2119
2112
2099
2087
2096
2133
2175
2205
2228
2254
2254
2240
2229
2243
2269
2284
2287
2304
2321
2304
2285
2284
2294
2307
2322
2339
2333
2301
2261
2234
2212
2191
2179
2192
2206
2194
2155
2115
2096
2090
2085
2087
2091
2064
2031
2000
1980
1982
1989
1991
2000
2007
1983
1954
1942
1945
1956
1966
1975
1981
1973
1941
1920
1915
1929
1941
1963
1979
1967
1925
1907
1894
1904
1904
1910
1923
1931
1923
1911
1904
1905
1908
1911
1927
1931
1920
1891
1871
1859
1864
1871
1883
1907
1917
1904
1883
1873
1872
1878
1890
1906
1903
1867
1834
1827
1843
1862
1875
1889
1893
1879
1857
1839
1830
1835
1846
1872
1903
1905
1886
1856
1841
1851
1852
1862
1887
1899
1879
1854
1838
1840
1849
1871
1898
1916
1914
1887
1858
1843
1842
1850
1863
1887
1892
1876
1876
1891
1911
1927
1937
1952
1963
1943
1911
1894
1909
1936
1968
2000
2013
1990
1962
1939
1938
1945
1959
1975
1984
1968
1935
1907
1887
1887
1893
1905
1920
1919
1895
1869
1849
1847
1860
1872
1897
1921
1917
1897
1877
1863
1857
1863
1889
1921
1922
1909
1889
1872
1865
1845
1829
1815
1805
1787
1790
1810
1865
1938
2022
2118
2207
2297
2405
2522
2647
2752
2820
2865
2885
2847
2752
2626
2471
2320
2161
2022
1917
1828
1745
1679
1630
1611
1616
1654
1708
1746
1767
1774
1776
1787
1803
1814
1833
1847
1846
1819
1806
1810
1830
1856
1879
1904
1911
1886
1855
1837
1834
1840
1856
1873
1889
1876
1862
1858
1873
1901
1919
1936
1953
1954
1935
1908
1891
1894
1914
1935
1954
1950
1927
1922
1950
1983
1995
2010
2030
2041
2039
2031
2022
2031
2059
2094
2129
2165
2175
2173
2176
2193
2224
2245
2265
2303
2334
2342
2337
2331
2331
2323
2325
2331
2332
2311
2295
2288
2277
2269
2277
2287
2288
2279
2237
2191
2156
2143
2145
2143
2160
2146
2115
2064
2019
2010
2003
2005
2017
2026
2011
1978
1936
1923
1931
1935
1950
1975
1979
1956
1932
1911
1906
1904
1918
1934
1936
1919
1893
1873
1865
1872
1889
1919
1936
1923
1904
1886
1884
1891
1893
1905
1914
1899
1870
1840
1818
1821
1833
1851
1872
1885
1869
1840
1819
1835
1855
1872
1889
1903
1891
1865
1834
1808
1804
1808
1840
1873
1881
1856
1831
1823
1825
1830
1831
1852
1868
1851
1826
1808
1806
1806
1802
1819
1842
1847
1834
1825
1840
1853
1854
1856
1872
1875
1858
1840
1830
1839
1856
1876
1885
1879
1847
1825
1823
1834
1832
1825
1841
1869
1862
1841
1837
1848
1859
1872
1873
1889
1903
1905
1895
1890
1904
1924
1943
1968
1987
1979
1955
1937
1937
1940
1937
1941
1948
1936
1920
1901
1885
1883
1872
1867
1875
1887
1875
1857
1845
1852
1869
1885
1897
1903
1882
1859
1855
1866
1880
1892
1906
1920
1907
1884
1870
1863
1860
1849
1836
1831
1821
1799
1791
1831
1903
1967
2023
2106
2187
2263
2358
2478
2612
2706
2778
2835
2862
2820
2735
2608
2451
2298
2147
2010
1910
1811
1729
1671
1623
1616
1637
1695
1759
1801
1802
1792
1779
1775
1781
1803
1833
1851
1845
1822
1805
1798
1805
1821
1839
1865
1873
1863
1843
1831
1835
1840
1854
1876
1893
1875
1854
1838
1823
1835
1872
1916
1947
1949
1941
1940
1939
1947
1949
1963
1983
1987
1971
1962
1968
1973
1985
2006
2037
2065
2060
2046
2044
2066
2094
2115
2137
2160
2173
2180
2198
2224
2241
2249
2273
2305
2323
2320
2320
2318
2342
2347
2358
2382
2384
2355
2329
2311
2303
2299
2295
2295
2303
2285
2240
2195
2173
2164
2162
2159
2153
2141
2119
2093
2074
2071
2064
2054
2062
2064
2032
1991
1967
1957
1952
1955
1975
1997
1984
1955
1936
1935
1936
1936
1965
1995
1994
1968
1947
1927
1919
1906
1917
1943
1967
1952
1921
1899
1903
1911
1922
1931
1937
1915
1899
1892
1885
1882
1879
1901
1909
1923
1902
1874
1867
1871
1872
1879
1901
1904
1885
1853
1831
1840
1857
1873
1894
1911
1910
1889
1854
1839
1841
1853
1872
1892
1887
1865
1837
1812
1822
1839
1857
1883
1890
1871
1842
1825
1826
1846
1856
1855
1856
1855
1856
1855
1856
1865
1872
1873
1878
1872
1848
1829
1825
1842
1867
1898
1932
1953
1947
1920
1891
1887
1906
1926
1946
1967
1961
1936
1920
1916
1923
1933
1951
1979
1987
1967
1931
1907
1898
1893
1899
1904
1901
1872
1847
1841
1843
1858
1872
1895
1904
1884
1870
1873
1891
1904
1904
1904
1909
1902
1867
1839
1837
1859
1883
1895
1904
1893
1851
1799
1759
1759
1790
1840
1920
2000
2043
2079
2123
2192
2301
2427
2558
2672
2737
2738
2702
2659
2613
2523
2413
2282
2128
1972
1849
1759
1703
1680
1676
1684
1699
1699
1696
1708
1730
1753
1777
1817
1849
1852
1830
1817
1808
1808
1814
1818
1821
1838
1847
1841
1859
1873
1878
1876
1890
1906
1895
1872
1857
1856
1870
1883
1899
1920
1936
1931
1918
1907
1915
1919
1936
1965
1981
1973
1950
1938
1949
1957
1967
2000
2032
2047
2039
2034
2029
2031
2031
2065
2107
2128
2123
2123
2128
2161
2201
2240
2284
2297
2288
2270
2267
2288
2307
2326
2353
2362
2352
2327
2305
2301
2306
2307
2304
2299
2283
2250
2221
2199
2192
2187
2175
2163
2147
2115
2078
2042
2025
2019
2026
2045
2055
2039
2002
1959
1929
1923
1925
1930
1935
1927
1915
1891
1883
1893
1910
1929
1937
1945
1929
1902
1879
1887
1893
1891
1902
1904
1898
1879
1870
1870
1879
1879
1883
1888
1879
1870
1860
1865
1869
1863
1863
1871
1883
1875
1861
1841
1837
1835
1845
1866
1874
1862
1845
1838
1840
1849
1842
1847
1862
1866
1859
1845
1840
1846
1856
1863
1883
1875
1840
1808
1795
1807
1807
1799
1828
1869
1876
1869
1850
1828
1831
1847
1867
1887
1888
1872
1852
1837
1831
1830
1831
1851
1869
1872
1867
1869
1877
1891
1903
1915
1930
1921
1899
1872
1873
1897
1914
1932
1948
1949
1936
1929
1927
1931
1939
1956
1971
1973
1946
1911
1889
1872
1863
1877
1910
1930
1915
1879
1868
1879
1902
1904
1911
1922
1918
1898
1875
1870
1871
1872
1891
1915
1925
1915
1895
1871
1863
1858
1854
1856
1871
1853
1824
1811
1856
1927
2000
2082
2160
2221
2283
2369
2469
2559
2653
2709
2752
2752
2689
2559
2433
2299
2169
2045
1951
1884
1818
1755
1710
1695
1709
1733
1775
1821
1840
1837
1827
1830
1855
1869
1880
1903
1907
1901
1875
1871
1881
1891
1904
1937
1972
1970
1943
1918
1909
1919
1936
1959
1981
1980
1961
1940
1936
1946
1954
1968
1977
1981
1969
1957
1945
1951
1965
1985
2026
2064
2064
2039
2020
2007
2015
2023
2047
2089
2103
2101
2094
2099
2126
2137
2142
2165
2189
2189
2181
2182
2215
2252
2280
2310
2332
2327
2321
2315
2319
2330
2334
2347
2357
2352
2322
2292
2273
2259
2256
2267
2285
2288
2256
2224
2192
2183
2167
2159
2159
2163
2128
2071
2047
2063
2059
2056
2041
2032
2005
1973
1939
1926
1931
1935
1941
1950
1951
1936
1927
1924
1922
1912
1921
1936
1954
1947
1923
1904
1904
1907
1921
1935
1946
1936
1908
1883
1872
1891
1918
1931
1948
1947
1919
1887
1863
1859
1872
1899
1930
1952
1936
1904
1885
1879
1881
1882
1887
1904
1901
1879
1861
1863
1890
1908
1923
1937
1939
1911
1879
1861
1853
1853
1861
1890
1926
1923
1901
1872
1873
1889
1894
1903
1916
1907
1877
1859
1856
1873
1902
1913
1926
1926
1915
1904
1894
1899
1905
1933
1962
1986
1984
1963
1936
1929
1934
1943
1959
1973
1968
1936
1907
1901
1903
1906
1918
1933
1950
1939
1910
1879
1871
1870
1872
1895
1923
1919
1907
1895
1881
1895
1922
1955
1977
1973
1937
1908
1899
1904
1906
1905
1918
1936
1937
1907
1876
1863
1859
1851
1846
1856
1863
1872
1895
1936
1991
2053
2122
2208
2298
2390
2480
2554
2635
2685
2702
2704
2672
2559
2416
2262
2135
2031
1938
1875
1825
1776
1744
1718
1712
1726
1755
1795
1840
1856
1845
1824
1821
1834
1837
1838
1856
1887
1891
1872
1856
1852
1855
1856
1872
1893
1884
1856
1835
1838
1858
1874
1904
1927
1936
1918
1899
1883
1888
1910
1933
1945
1951
1953
1936
1921
1934
1949
1957
1977
1999
1985
1967
1955
1955
1970
1994
2014
2032
2042
2039
2045
2045
2047
2067
2098
2143
2161
2160
2149
2147
2173
2195
2218
2245
2283
2288
2277
2269
2260
2258
2256
2271
2288
2282
2240
2205
2182
2181
2189
2192
2192
2190
2153
2103
2077
2067
2079
2085
2094
2096
2081
2044
2011
1983
1966
1973
1990
1996
1980
1941
1910
1890
1882
1889
1898
1910
1917
1902
1872
1861
1871
1888
1897
1911
1923
1906
1883
1872
1880
1903
1904
1914
1931
1936
1925
1922
1919
1914
1906
1906
1911
1915
1904
1883
1870
1872
1874
1883
1904
1911
1904
1891
1874
1872
1883
1886
1900
1920
1915
1887
1859
1849
1860
1879
1904
1921
1934
1919
1902
1879
1870
1866
1872
1875
1879
1872
1859
1847
1851
1865
1867
1877
1901
1907
1885
1863
1857
1867
1872
1886
1904
1918
1913
1899
1898
1904
1921
1936
1963
1974
1968
1939
1922
1921
1936
1955
1975
1989
1977
1936
1887
1859
1862
1872
1893
1908
1909
1876
1845
1827
1838
1856
1877
1899
1910
1893
1871
1865
1873
1883
1890
1906
1929
1923
1902
1877
1873
1883
1891
1893
1905
1904
1870
1834
1807
1804
1823
1858
1917
1981
2020
2060
2106
2166
2258
2387
2529
2650
2719
2737
2729
2703
2666
2593
2485
2363
2234
2077
1935
1842
1795
1776
1776
1786
1804
1805
1787
1763
1755
1774
1792
1827
1858
1861
1842
1824
1823
1841
1854
1866
1889
1894
1869
1841
1835
1843
1869
1883
1902
1915
1913
1892
1878
1877
1890
1889
1895
1924
1929
1915
1904
1890
1891
1926
1959
1991
2002
1991
1968
1950
1943
1943
1950
1974
2000
2000
1987
1974
1982
1999
2017
2043
2079
2082
2069
2065
2073
2096
2115
2147
2187
2211
2203
2182
2186
2207
2224
2246
2288
2310
2311
2288
2261
2247
2240
2241
2249
2256
2254
2234
2209
2179
2160
2154
2155
2159
2157
2131
2096
2064
2047
2053
2047
2045
2032
2005
1962
1927
1922
1939
1963
1971
1978
1963
1933
1904
1877
1881
1891
1907
1925
1931
1917
1894
1880
1889
1903
1913
1929
1943
1930
1904
1885
1888
1905
1911
1925
1941
1939
1920
1908
1910
1926
1936
1950
1962
1964
1947
1911
1879
1875
1872
1874
1893
1925
1929
1904
1887
1883
1893
1903
1919
1937
1932
1904
1871
1850
1843
1846
1867
1879
1875
1865
1856
1861
1872
1898
1923
1947
1955
1936
1903
1877
1870
1859
1865
1885
1904
1904
1886
1871
1872
1876
1872
1877
1905
1925
1918
1909
1909
1929
1939
1947
1967
1982
1974
1957
1938
1939
1958
1975
1996
2015
2013
1985
1955
1936
1947
1961
1982
2002
2000
1968
1936
1905
1894
1893
1906
1926
1936
1922
1885
1863
1859
1868
1888
1907
1936
1953
1931
1901
1887
1898
1911
1924
1936
1939
1934
1914
1893
1872
1868
1861
1866
1885
1891
1893
1921
1971
2033
2103
2176
2271
2383
2480
2559
2637
2695
2736
2746
2735
2678
2559
2423
2286
2149
2030
1934
1871
1823
1781
1746
1728
1738
1765
1786
1809
1841
1851
1827
1803
1801
1817
1836
1847
1869
1878
1869
1851
1841
1843
1853
1870
1889
1899
1888
1865
1840
1840
1854
1866
1893
1920
1920
1907
1881
1881
1895
1900
1905
1929
1939
1936
1919
1907
1920
1934
1945
1968
1993
1994
1978
1966
1968
1995
2008
2016
2032
2033
2022
2000
2005
2032
2059
2097
2143
2171
2176
2176
2180
2192
2206
2229
2257
2281
2271
2254
2243
2247
2266
2277
2293
2307
2303
2272
2240
2224
2214
2201
2204
2203
2191
2160
2134
2117
2112
2107
2106
2114
2112
2090
2054
2020
2018
2015
2005
2007
2026
2015
1981
1943
1921
1923
1930
1939
1954
1957
1936
1926
1919
1920
1922
1933
1963
1973
1954
1919
1903
1894
1889
1898
1914
1936
1932
1917
1902
1899
1909
1914
1920
1931
1924
1895
1870
1874
1895
1911
1926
1936
1949
1932
1902
1885
1878
1879
1889
1900
1917
1918
1893
1872
1859
1871
1874
1883
1894
1889
1866
1843
1835
1840
1854
1863
1884
1909
1907
1877
1847
1831
1823
1819
1840
1878
1887
1867
1849
1850
1862
1869
1878
1901
1903
1879
1872
1868
1868
1865
1872
1890
1895
1878
1853
1840
1845
1856
1874
1893
1917
1923
1910
1901
1891
1902
1907
1919
1939
1951
1936
1924
1937
1955
1968
1979
1992
2002
2002
2000
1978
1954
1942
1943
1947
1955
1947
1923
1899
1884
1883
1874
1871
1871
1879
1871
1856
1851
1857
1881
1904
1926
1940
1927
1893
1865
1869
1876
1888
1915
1936
1938
1909
1877
1854
1839
1811
1805
1838
1878
1909
1937
1981
2047
2125
2208
2310
2447
2591
2701
2768
2830
2864
2864
2832
2773
2673
2512
2337
2167
2029
1921
1840
1797
1765
1719
1697
1702
1723
1749
1786
1826
1860
1839
1811
1793
1810
1837
1847
1863
1885
1883
1858
1842
1840
1844
1847
1865
1894
1906
1897
1885
1883
1888
1904
1921
1939
1953
1935
1906
1875
1868
1869
1873
1890
1916
1936
1936
1922
1925
1949
1969
1993
2009
2011
1986
1966
1963
1979
1995
2015
2042
2070
2067
2061
2046
2064
2089
2112
2147
2186
2210
2217
2214
2221
2240
2256
2288
2320
2335
2321
2306
2305
2322
2337
2351
2361
2362
2337
2297
2262
2250
2242
2243
2253
2258
