1738
1730
1731
1754
1765
1713
1618
1552
1535
1597
1655
1695
1739
1739
1658
1574
1535
1591
1657
1718
1779
1807
1731
1622
1559
1591
1666
1735
1792
1828
1779
1675
1603
1601
1659
1738
1799
1827
1791
1659
1520
1490
1571
1678
1774
1851
1874
1775
1623
1531
1553
1643
1737
1811
1853
1802
1679
1584
1594
1673
1755
1841
1903
1871
1734
1609
1572
1613
1689
1771
1846
1869
1781
1651
1584
1619
1699
1783
1883
1920
1828
1687
1588
1587
1671
1777
1870
1920
1872
1735
1616
1575
1640
1731
1820
1903
1923
1834
1697
1629
1657
1749
1835
1900
1948
1907
1769
1630
1600
1685
1815
1945
2013
1984
1850
1707
1657
1737
1842
1925
1970
1936
1812
1680
1619
1680
1808
1915
1986
2010
1922
1776
1680
1690
1773
1861
1951
2000
1954
1823
1717
1694
1771
1881
1965
2015
2009
1877
1741
1686
1747
1877
1984
2042
2054
1958
1825
1743
1745
1834
1936
2032
2102
2069
1933
1808
1776
1845
1951
2037
2091
2080
1975
1847
1785
1818
1915
2006
2075
2102
2013
1862
1760
1760
1847
1956
2030
2067
2015
1879
1735
1703
1761
1856
1936
2000
2022
1945
1826
1744
1771
1851
1941
2000
2000
1904
1757
1666
1695
1807
1935
2026
2063
1995
1853
1722
1698
1791
1911
2022
2115
2141
2079
2011
2064
2215
2425
2637
2786
2850
2758
2591
2455
2407
2399
2402
2367
2275
2092
1851
1664
1604
1673
1776
1897
2001
2010
1899
1749
1697
1759
1874
1974
2037
2058
1947
1785
1700
1744
1853
1953
2022
2047
1972
1834
1719
1726
1814
1913
2015
2094
2087
1968
1808
1737
1792
1885
1955
2009
2026
1933
1801
1725
1767
1872
1968
2059
2087
2006
1858
1744
1763
1872
1979
2054
2102
2075
1936
1792
1757
1838
1948
2045
2122
2134
2014
1835
1755
1809
1918
2037
2141
2151
2057
1902
1801
1846
1943
2015
2112
2155
2111
1961
1833
1818
1891
2004
2117
2182
2192
2087
1941
1871
1922
2033
2135
2209
2237
2167
2031
1930
1941
2053
2186
2304
2386
2348
2178
2029
1997
2079
2193
2279
2318
2307
2195
2033
1964
1999
2096
2191
2256
2274
2202
2061
1947
1958
2037
2128
2206
2229
2142
1973
1819
1762
1810
1906
1991
2054
2045
1935
1783
1717
1751
1823
1893
1967
1984
1914
1765
1639
1642
1726
1824
1897
1937
1897
1757
1648
1649
1731
1823
1884
1920
1907
1795
1657
1615
1681
1788
1897
1980
1997
1904
1758
1651
1678
1789
1898
1977
2030
2003
1875
1755
1709
1758
1850
1954
2059
2061
1907
1738
1659
1695
1807
1926
2005
2038
1986
1856
1746
1741
1823
1927
2013
2065
2021
1889
1770
1743
1799
1894
1981
2043
2039
1931
1807
1766
1823
1918
2006
2074
2066
1957
1808
1724
1755
1859
1972
2067
2113
2071
1927
1782
1721
1771
1870
1967
2033
2047
1935
1782
1728
1790
1902
1994
2064
2075
1975
1835
1751
1791
1907
1993
2053
2090
2026
1874
1743
1726
1814
1933
2023
2079
2065
1945
1822
1775
1813
1901
1981
2038
2047
1977
1870
1808
1840
1939
2028
2090
2095
2002
1856
1754
1754
1840
1942
2041
2125
2117
1969
1809
1750
1799
1902
2002
2096
2128
2063
1925
1852
1873
1969
2066
2133
2160
2103
1973
1862
1855
1934
2032
2118
2172
2156
2029
1907
1862
1893
1958
2027
2078
2064
1949
1799
1730
1776
1909
2000
2054
2083
2007
1861
1745
1729
1823
1951
2046
2091
2063
1945
1802
1729
1769
1865
1963
2043
2070
1974
1835
1743
1766
1859
1959
2035
2067
2017
1899
1829
1873
1997
2135
2292
2448
2537
2523
2483
2494
2559
2671
2713
2701
2611
2388
2118
1904
1827
1841
1894
1985
2062
1986
1820
1699
1690
1783
1897
1995
2080
2064
1918
1757
1699
1725
1808
1921
2010
2031
1931
1793
1723
1759
1867
1958
2029
2065
1997
1845
1715
1705
1796
1911
2005
2055
2003
1867
1743
1722
1805
1920
2013
2076
2064
1943
1793
1720
1758
1858
1974
2064
2097
2020
1873
1759
1767
1873
1987
2087
2139
2101
1975
1861
1822
1876
1968
2046
2105
2100
1982
1831
1762
1813
1920
2031
2142
2187
2097
1947
1838
1837
1931
2060
2158
2197
2159
2016
1895
1895
1994
2110
2176
2224
2222
2123
1982
1915
1975
2093
2192
2266
2297
2244
2127
2066
2081
2154
2233
2291
2334
2303
2165
2025
1989
2064
2160
2246
2299
2286
2161
2014
1957
2002
2109
2179
2226
2239
2154
1973
1856
1850
1920
1999
2061
2084
2027
1877
1747
1740
1833
1921
1973
2014
2000
1872
1723
1665
1729
1845
1931
1974
1975
1887
1748
1647
1655
1754
1863
1947
1983
1935
1792
1659
1626
1698
1809
1904
1962
1965
1845
1711
1651
1689
1791
1893
1969
1984
1903
1770
1677
1686
1782
1894
1993
2064
2000
1850
1709
1686
1782
1887
1970
2042
2034
1917
1783
1722
1762
1856
1956
2021
2035
1949
1798
1706
1714
1821
1927
1992
2010
1964
1831
1719
1709
1783
1887
1971
2031
2011
1879
1729
1679
1728
1829
1931
1999
2023
1957
1826
1740
1744
1834
1931
2018
2069
2014
1853
1712
1679
1751
1858
1965
2043
2047
1921
1775
1705
1754
1864
1966
2035
2046
1941
1791
1708
1733
1833
1937
2025
2064
1996
1846
1725
1714
1801
1904
1997
2077
2047
1910
1771
1719
1762
1855
1950
2015
2021
1925
1792
1722
1763
1872
1968
2030
2066
2004
1866
1745
1739
1830
1943
2037
2103
2079
1942
1801
1740
1778
1870
1951
2015
2037
1947
1807
1727
1758
1873
1982
2061
2096
2043
1917
1809
1808
1887
1995
2096
2155
2126
2006
1876
1821
1877
1990
2093
2149
2147
2034
1876
1795
1827
1931
2030
2100
2133
2064
1898
1760
1743
1829
1926
2001
2059
2029
1903
1761
1716
1776
1873
1967
2039
2045
1940
1810
1738
1772
1877
1974
2045
2062
1963
1802
1686
1694
1787
1886
1968
2035
2036
1938
1852
1863
1973
2139
2305
2467
2581
2559
2494
2470
2534
2624
2672
2666
2579
2373
2109
1888
1808
1847
1904
1950
1983
1936
1792
1664
1649
1731
1856
1968
2046
2070
1959
1785
1680
1702
1807
1905
1973
2000
1930
1789
1690
1701
1791
1883
1983
2061
2026
1887
1753
1714
1797
1911
2003
2064
2064
1951
1808
1729
1759
1867
2001
2118
2148
2038
1867
1737
1727
1818
1937
2036
2096
2059
1926
1805
1773
1840
1945
2032
2095
2079
1967
1834
1776
1826
1933
2034
2123
2161
2089
1938
1844
1850
1935
2029
2115
2159
2121
1995
1885
1869
1961
2096
2203
2274
2245
2103
1935
1866
1917
2026
2128
2197
2231
2161
2023
1949
1977
2077
2179
2263
2320
2277
2134
2003
1982
2066
2176
2270
2335
2337
2224
2096
2061
2128
2212
2273
2319
2323
2239
2100
2033
2064
2147
2229
2268
2256
2157
1991
1859
1823
1887
1975
2059
2108
2087
1942
1792
1739
1779
1879
1968
2016
2003
1906
1759
1669
1702
1817
1917
1975
1999
1918
1747
1636
1644
1744
1858
1951
1998
1970
1842
1710
1658
1703
1805
1907
1975
2000
1910
1757
1664
1680
1777
1883
1969
2006
1938
1812
1719
1714
1791
1894
1971
2011
1984
1866
1727
1670
1738
1847
1939
2014
2047
1974
1833
1742
1755
1841
1930
1995
2022
1968
1826
1714
1737
1838
1936
2019
2064
2014
1875
1739
1705
1763
1872
1968
2037
2047
1951
1799
1717
1751
1847
1938
2014
2043
1968
1808
1681
1682
1790
1913
2000
2059
2037
1919
1787
1744
1805
1904
1995
2079
2094
1973
1811
1714
1734
1837
1955
2055
2095
2002
1859
1761
1749
1825
1939
2034
2090
2041
1898
1757
1717
1777
1879
1968
2035
2041
1939
1802
1728
1765
1856
1965
2037
2075
2008
1872
1789
1785
1854
1959
2046
2106
2079
1936
1803
1776
1839
1942
2039
2098
2096
1984
1838
1755
1776
1863
1970
2073
2114
2023
1857
1745
1761
1859
1973
2078
2129
2103
1978
1862
1839
1917
2009
2087
2147
2145
2033
1879
1802
1826
1933
2047
2150
2197
2128
1987
1902
1897
1943
2007
2090
2147
2107
1942
1776
1726
1792
1893
1987
2067
2079
1955
1803
1726
1763
1872
1973
2047
2091
2010
1861
1763
1774
1861
1967
2057
2096
2041
1898
1760
1728
1797
1926
2047
2138
2143
2031
1904
1873
1953
2094
2253
2416
2544
2559
2477
2393
2385
2465
2544
2587
2555
2417
2178
1952
1831
1835
1895
1969
2021
1995
1861
1707
1663
1748
1893
2018
2113
2126
2011
1851
1759
1767
1844
1936
2018
2083
2044
1918
1792
1755
1817
1909
2000
2066
2070
1966
1820
1753
1799
1898
1985
2064
2096
2011
1874
1770
1776
1878
1995
2096
2151
2119
1967
1822
1778
1849
1962
2067
2134
2117
1991
1857
1810
1859
1967
2068
2128
2165
2107
1977
1885
1874
1946
2019
2098
2151
2105
1968
1871
1863
1936
2031
2125
2189
2186
2065
1919
1864
1921
2036
2139
2209
2224
2144
1998
1912
1938
2042
2160
2253
2295
2229
2086
1968
1959
2042
2162
2253
2316
2342
2256
2111
2041
2096
2194
2286
2354
2367
2279
2145
2081
2099
2170
2253
2341
2375
2304
2145
2012
1987
2073
2171
2249
2287
2246
2107
1947
1886
1937
2064
2143
2160
2115
1984
1818
1729
1744
1835
1932
2000
2027
1967
1845
1743
1730
1793
1871
1939
1984
1955
1816
1685
1660
1729
1831
1920
1984
1982
1875
1715
1630
1674
1777
1889
1977
2018
1968
1835
1711
1701
1783
1867
1931
1975
1955
1833
1712
1677
1728
1821
1917
1987
1994
1894
1776
1715
1763
1859
1958
2013
2021
1951
1814
1723
1747
1846
1926
1983
2026
1995
1861
1727
1684
1758
1879
2000
2073
2064
1938
1789
1713
1760
1867
1959
2047
2112
2027
1842
1709
1697
1789
1900
1983
2020
1981
1850
1719
1682
1753
1868
1955
2015
2029
1926
1780
1729
1793
1883
1963
2026
2034
1951
1804
1703
1713
1810
1915
1994
2047
2013
1874
1761
1734
1811
1949
2079
2137
2112
1978
1806
1696
1705
1803
1908
1993
2028
1945
1802
1707
1719
1817
1941
2026
2069
2006
1847
1711
1684
1759
1877
1959
2015
2029
1925
1783
1733
1783
1879
1968
2039
2081
2010
1862
1758
1759
1835
1923
2019
2091
2096
1995
1859
1811
1873
1979
2065
2109
2094
1975
1841
1776
1833
1936
2039
2123
2140
2032
1861
1744
1755
1851
1953
2030
2077
2022
1870
1727
1712
1797
1907
2001
2047
2031
1923
1792
1734
1791
1904
1997
2045
2042
1948
1821
1722
1737
1826
1921
1998
2043
2003
1870
1745
1712
1775
1859
1939
2003
2015
1933
1840
1839
1917
2035
2166
2275
2352
2327
2266
2245
2318
2449
2558
2601
2559
2427
2181
1954
1840
1854
1910
1969
2011
1984
1854
1699
1623
1693
1814
1911
1974
2000
1931
1804
1722
1750
1847
1935
2007
2075
2032
1901
1781
1758
1819
1904
1975
2032
2030
1903
1759
1718
1789
1898
1988
2062
2079
1986
1843
1762
1794
1897
1998
2080
2112
2037
1891
1791
1807
1902
2000
2092
2128
2093
1957
1817
1765
1812
1922
2022
2107
2141
2057
1917
1843
1871
1951
2028
2092
2111
2059
1938
1869
1885
1971
2065
2144
2176
2128
1995
1874
1843
1913
2011
2118
2195
2206
2096
1955
1883
1931
2038
2159
2252
2304
2257
2128
2019
2034
2109
2215
2291
2329
2293
2176
2053
2001
2064
2176
2278
2364
2389
2310
2157
2053
2071
2160
2246
2319
2358
2295
2147
2023
2030
2128
2240
2318
2363
2310
2130
1927
1849
1889
1983
2089
2160
2147
2022
1871
1776
1791
1859
1935
1996
2015
1930
1776
1658
1667
1771
1872
1950
2000
1966
1821
1694
1683
1760
1858
1941
1986
1970
1867
1722
1642
1689
1790
1877
1945
1959
1877
1741
1654
1683
1797
1924
2000
2019
1956
1808
1679
1678
1790
1891
1945
1975
1975
1881
1731
1663
1721
1833
1919
1995
2011
1927
1808
1729
1746
1845
1937
2005
2034
1968
1806
1671
1665
1774
1909
2039
2117
2081
1925
1767
1703
1761
1873
1959
2015
2023
1939
1793
1690
1712
1819
1909
1985
2033
1989
1853
1742
1719
1783
1866
1931
1985
1995
1889
1751
1694
1751
1871
1974
2053
2077
1983
1831
1728
1742
1828
1924
2017
2064
2000
1859
1734
1724
1820
1936
2017
2070
2066
1942
1803
1730
1759
1842
1961
2055
2066
1942
1795
1701
1735
1842
1941
2012
2053
1991
1843
1712
1712
1806
1922
2023
2095
2083
1951
1799
1730
1793
1904
1986
2056
2064
1971
1826
1714
1718
1815
1922
2011
2075
2032
1899
1785
1790
1877
1979
2055
2095
2077
1978
1853
1808
1868
1968
2064
2128
2134
2032
1878
1787
1808
1919
2029
2111
2143
2075
1936
1805
1775
1842
1938
2031
2105
2107
1980
1827
1763
1808
1887
1955
2015
2042
1950
1805
1729
1770
1889
2010
2091
2111
2047
1904
1756
1721
1799
1886
1953
2031
2033
1926
1777
1710
1749
1825
1920
1995
2032
1987
1907
1885
1968
2106
2234
2353
2443
2439
2348
2285
2333
2432
2512
2550
2515
2387
2162
1934
1808
1810
1887
1965
2011
1996
1856
1698
1629
1703
1824
1947
2032
2064
1978
1818
1699
1700
1808
1931
1995
2032
2006
1892
1747
1712
1778
1891
1995
2075
2104
2015
1849
1737
1742
1839
1945
2025
2055
1981
1853
1776
1787
1881
1982
2053
2097
2064
1910
1776
1739
1802
1898
1998
2084
2106
2000
1856
1778
1827
1933
2035
2113
2159
2091
1934
1819
1811
1889
1982
2069
2126
2103
1988
1892
1857
1915
1998
2089
2157
2160
2047
1893
1809
1845
1949
2064
2154
2195
2135
1984
1889
1914
2032
2143
2224
2274
2241
2109
1978
1974
2067
2176
2266
2326
2331
2220
2081
2023
2078
2179
2273
2331
2346
2271
2113
2003
2015
2112
2224
2315
2369
2338
2192
2047
2000
2059
2150
2239
2271
2231
2092
1922
1840
1867
1962
2075
2166
2177
2063
1874
1749
1726
1792
1872
1956
2018
2003
1869
1713
1671
1728
1819
1909
1974
1989
1902
1765
1679
1718
1830
1911
1954
1939
1827
1675
1585
1616
1731
1842
1904
1957
1927
1807
1684
1665
1729
1806
1889
1975
1999
1906
1763
1686
1719
1820
1910
1984
2001
1917
1772
1681
1699
1803
1923
1999
2022
1983
1857
1738
1707
1777
1877
1969
2021
2009
1898
1750
1687
1737
1855
1951
2017
2045
1955
1815
1733
1763
1841
1931
1992
2030
1975
1841
1735
1729
1813
1916
1998
2068
2077
1965
1799
1728
1757
1842
1941
2023
2034
1937
1793
1727
1759
1855
1943
2029
2060
1984
1838
1703
1673
1757
1878
1986
2064
2039
1909
1759
1713
1776
1887
1983
2062
2083
1982
1851
1767
1776
1864
1955
2033
2085
2032
1887
1763
1754
1830
1925
2016
2085
2063
1941
1827
1788
1830
1909
1990
2054
2042
1950
1814
1735
1763
1845
1926
2001
2045
1984
1855
1765
1773
1867
1968
2031
2066
2030
1897
1761
1726
1802
1908
1994
2057
2065
1973
1840
1739
1764
1877
1998
2087
2127
2063
1919
1808
1791
1891
2032
2166
2225
2163
1998
1840
1787
1856
1970
2079
2138
2133
2025
1882
1802
1823
1934
2039
2110
2124
2039
1909
1814
1805
1877
1987
2071
2107
2064
1920
1786
1750
1817
1914
1998
2066
2073
1969
1850
1783
1811
1906
2009
2101
2129
2035
1866
1745
1744
1840
1949
2038
2096
2064
1917
1759
1699
1745
1847
1961
2062
2115
2065
1954
1929
2015
2202
2411
2606
2707
2683
2559
2465
2439
2471
2481
2443
2371
2225
1994
1798
1713
1755
1843
1947
2058
2078
1968
1815
1731
1760
1865
1963
2029
2063
1983
1839
1721
1714
1807
1925
2018
2070
2020
1886
1760
1729
1797
1907
2017
2109
2119
1985
1809
1728
1776
1872
1966
2051
2096
2011
1861
1745
1763
1865
1978
2065
2107
2061
1916
1801
1785
1859
1995
2099
2128
2094
1967
1825
1759
1793
1893
1987
2074
2112
2032
1890
1807
1841
1939
2028
2097
2146
2091
1938
1830
1842
1949
2069
2163
2215
2177
2036
1885
1835
1904
2019
2138
2213
2219
2125
1974
1889
1925
2030
2138
2224
2257
2204
2064
1936
1931
2030
2158
2257
2347
2342
2200
2042
1984
2041
2141
2241
2324
2358
2287
2162
2093
2106
2175
2240
2291
2326
2283
2153
2032
2000
2069
2150
2222
2272
2231
2079
1901
1827
1859
1946
2022
2086
2083
1978
1826
1742
1744
1845
1937
2001
2042
1990
1840
1705
1685
1766
1865
1943
2009
2007
1879
1713
1648
1723
1840
1934
2001
2009
1918
1776
1697
1733
1815
1898
1962
1989
1934
1791
1673
1668
1769
1881
1968
2023
1991
1854
1717
1673
1729
1837
1931
2007
2032
1939
1794
1712
1739
1840
1943
2018
2054
1978
1825
1712
1715
1789
1875
1968
2032
2012
1882
1747
1725
1795
1899
1983
2029
2023
1921
1803
1744
1767
1867
1963
2042
2089
2024
1863
1735
1733
1839
1929
1986
2018
1999
1873
1735
1699
1765
1874
1978
2064
2074
1955
1802
1725
1758
1856
1959
2039
2077
1986
1837
1721
1733
1826
1930
2016
2064
2019
1883
1755
1727
1809
1920
1993
2078
2066
1948
1795
1713
1763
1878
1986
2066
2087
1995
1840
1723
1735
1830
1927
2004
2044
2007
1882
1750
1711
1776
1893
1999
2069
2069
1954
1812
1743
1786
1905
2016
2075
2074
1995
1840
1731
1745
1853
1973
2069
2121
2073
1917
1766
1729
1813
1921
2013
2081
2070
1948
1791
1705
1744
1851
1950
2039
2096
2005
1839
1725
1722
1815
1925
2006
2069
2055
1930
1822
1791
1872
1984
2047
2085
2074
1975
1852
1792
1827
1921
2029
2118
2135
2043
1883
1776
1787
1894
2000
2091
2143
2106
1979
1872
1858
1920
2010
2087
2119
2111
1997
1856
1778
1829
1925
2013
2089
2102
2006
1875
1799
1829
1914
1999
2070
2112
2064
1929
1806
1783
1862
1975
2066
2089
2027
1889
1758
1711
1774
1881
1968
2031
2055
1970
1818
1713
1718
1811
1922
2006
2054
1999
1878
1792
1801
1921
2076
2207
2315
2395
2399
2375
2402
2512
2639
2714
2740
2728
2589
2342
2141
2047
2039
2067
2082
2065
1999
1862
1733
1703
1763
1856
1923
1973
1950
1823
1696
1648
1718
1838
1935
2001
2014
1904
1759
1678
1712
1819
1936
2017
2047
1983
1841
1737
1744
1840
1934
1998
2043
2038
1921
1776
1706
1754
1863
1968
2031
2027
1932
1799
1732
1759
1845
1953
2035
2071
1994
1851
1758
1749
1826
1925
2001
2056
2037
1919
1794
1760
1822
1952
2076
2129
2121
2011
1871
1788
1818
1922
2023
2102
2145
2083
1947
1831
1815
1895
2013
2103
2151
2127
1987
1851
1813
1887
2014
2113
2188
2197
2102
1940
1859
1894
2001
2112
2202
2256
2213
2077
1977
1990
2079
2176
2262
2327
2304
2171
2028
1984
2046
2151
2227
2281
2289
2201
2078
2013
2065
2151
2208
2251
2281
2214
2073
1939
1898
1960
2041
2108
2139
2096
1957
1823
1771
1808
1899
1997
2038
2027
1920
1777
1715
1749
1834
1915
1974
1985
1893
1739
1645
1655
1740
1842
1937
2021
1984
1820
1664
1642
1719
1821
1915
1983
1990
1897
1747
1665
1697
1799
1883
1949
1968
1883
1733
1648
1678
1779
1878
1959
2000
1965
1830
1695
1671
1776
1907
2005
2067
2054
1925
1775
1684
1707
1803
1905
1978
2000
1958
1853
1761
1765
1834
1895
1961
2005
1968
1836
1713
1702
1783
1889
1981
2045
2038
1919
1767
1693
1739
1845
1950
2031
2074
2000
1856
1744
1747
1846
1955
2032
2075
2033
1908
1786
1745
1799
1904
2019
2103
2114
1989
1797
1706
1753
1849
1935
2000
2018
1938
1789
1680
1687
1793
1906
1993
2067
2035
1902
1785
1744
1794
1888
1994
2067
2059
1922
1776
1730
1806
1920
2000
2055
2067
1975
1835
1759
1778
1869
1968
2047
2090
2005
1841
1703
1683
1776
1890
1983
2035
2018
1917
1794
1748
1808
1904
1991
2065
2075
1967
1813
1727
1728
1819
1926
2012
2093
2081
1938
1791
1739
1785
1869
1947
2015
2038
1958
1855
1819
1856
1927
1995
2037
2042
1952
1817
1739
1764
1883
1995
2061
2094
2035
1887
1751
1727
1817
1927
1988
2026
2011
1904
1797
1805
1904
2002
2054
2070
2059
1954
1815
1746
1792
1905
2043
2160
2203
2137
1986
1840
1809
1879
1978
2062
2114
2119
2011
1871
1830
1905
2005
2089
2125
2112
2015
1879
1793
1819
1914
1983
2045
2093
2034
1904
1792
1767
1840
1945
2047
2119
2103
1959
1815
1773
1829
1913
1981
2032
2045
1951
1821
1769
1831
1951
2037
2086
2064
1936
1773
1663
1671
1787
1936
2069
2181
2261
2224
2160
2202
2352
2524
2671
2761
2775
2673
2515
2413
2384
2395
2375
2339
2273
2115
1899
1738
1706
1775
1874
1979
2069
2039
1895
1739
1675
1721
1847
1989
2071
2055
1927
1777
1693
1707
1790
1883
1963
1991
1921
1776
1682
1727
1857
1974
2061
2097
2038
1895
1762
1735
1812
1936
2054
2119
2103
1983
1830
1767
1834
1930
1975
2000
1992
1904
1782
1707
1728
1840
1970
2088
2138
2071
1914
1779
1729
1805
1911
1996
2073
2081
1968
1841
1787
1815
1907
1987
2066
2102
2045
1941
1893
1920
2014
2092
2131
2142
2094
1968
1874
1862
1929
2021
2107
2161
2161
2079
1980
1953
2001
2105
2205
2267
2271
2190
2045
1961
1975
2083
2192
2290
2357
2336
2220
2098
2067
2131
2212
2271
2319
2348
2320
2250
2189
2219
2284
2339
2391
2414
2309
2151
2057
2074
2147
2192
2226
2235
2155
2000
1868
1828
1881
1975
2062
2111
2095
1972
1833
1766
1807
1891
1970
2042
2078
1978
1831
1738
1739
1819
1915
1989
2031
2019
1934
1808
1741
1775
1851
1927
1993
1983
1871
1742
1706
1759
1858
1939
1998
2007
1921
1777
1694
1707
1805
1921
2000
2034
1994
1866
1746
1701
1770
1873
1955
2046
2064
1957
1825
1773
1810
1904
1968
2015
2030
1936
1805
1716
1760
1872
1968
2022
2067
2033
1904
1776
1737
1789
1873
1965
2033
2035
1946
1837
1776
1809
1886
1936
1999
2028
1946
1808
1722
1729
1834
1952
2064
2114
2061
1919
1762
1732
1819
1924
2014
2071
2047
1946
1833
1789
1840
1937
2023
2075
2059
1953
1840
1771
1785
1866
1963
2035
2068
1994
1853
1746
1744
1823
1920
2000
2060
2038
1929
1803
1757
1810
1904
1981
2043
2067
1968
1821
1742
1769
1872
1991
2087
2128
2065
1920
1810
1797
1872
1968
2055
2127
2141
2007
1847
1776
1813
1894
2016
2135
2141
2007
1840
1742
1747
1829
1927
2017
2067
2011
1886
1790
1808
1901
1995
2075
2131
2097
1947
1820
1792
1872
1971
2038
2097
2099
1999
1883
1835
1877
1983
2078
2141
2160
2074
1884
1744
1739
1827
1926
2006
2096
2127
2014
1872
1826
1869
1957
2037
2107
2118
2013
1879
1826
1871
1973
2100
2181
2198
2118
1975
1869
1869
1960
2073
2151
2195
2160
2029
1901
1856
1922
2053
2167
2240
2207
2062
1890
1807
1817
1910
1984
2026
2032
1946
1822
1775
1819
1923
2023
2096
2128
2064
1918
1792
1758
1817
1911
1991
2063
2067
1957
1820
1762
1808
1909
2017
2095
2096
1968
1808
1719
1739
1871
1988
2105
2193
2194
2097
2026
2034
2170
2371
2559
2709
2769
2722
2608
2509
2474
2448
2413
2352
2251
2079
1860
1711
1697
1778
1883
1979
2043
2010
1883
1751
1716
1776
1867
1954
2021
2013
1904
1789
1762
1805
1889
1965
1993
1999
1907
1746
1701
1744
1830
1925
2014
2063
2003
1869
1749
1715
1781
1879
1953
2000
1982
1871
1742
1699
1770
1883
2001
2095
2111
2007
1873
1798
1808
1877
1958
2033
2081
2015
1874
1772
1765
1854
1973
2064
2115
2092
1943
1802
1745
1817
1959
2112
2207
2205
2076
1895
1787
1791
1879
1974
2067
2113
2066
1937
1840
1851
1936
2034
2128
2182
2158
2033
1930
1893
1955
2065
2163
2256
2299
2209
2047
1947
1958
2067
2190
2259
2297
2250
2112
2007
1985
2064
2189
2277
2333
2315
2205
2093
2039
2090
2167
2239
2309
2326
2234
2092
1986
1993
2073
2171
2245
2283
2208
2058
1918
1879
1947
2022
2074
2081
2015
1861
1712
1654
1719
1831
1927
2004
2003
1887
1717
1636
1681
1785
1883
1961
1989
1910
1751
1630
1621
1699
1799
1883
1936
1914
1797
1681
1651
1726
1823
1902
1959
1955
1856
1718
1648
1691
1797
1875
1939
1962
1867
1734
1664
1679
1750
1827
1905
1957
1919
1807
1702
1664
1714
1805
1891
1968
2000
1922
1777
1697
1715
1797
1874
1943
1973
1915
1791
1700
1703
1807
1931
2011
2041
1994
1865
1731
1671
1714
1815
1915
1998
2010
1909
1767
1709
1755
1851
1916
1966
1987
1904
1742
1643
1654
1759
1872
1968
2045
2043
1917
1753
1698
1742
1831
1938
2019
2031
1919
1755
1679
1712
1798
1885
1952
1985
1923
1797
1713
1727
1811
1919
2005
2045
1985
1835
1706
1679
1750
1855
1935
1998
2001
1910
1793
1744
1776
1843
1907
1968
1997
1923
1782
1680
1695
1791
1891
1999
2039
1991
1859
1739
1730
1821
1921
1990
2022
2014
1904
1771
1710
1751
1840
1935
2013
2033
1938
1791
1700
1724
1824
1937
2047
2110
2043
1889
1747
1715
1789
1899
1985
2032
2022
1911
1777
1727
1776
1872
1970
2032
2058
1975
1838
1743
1759
1850
1945
2029
2087
2033
1878
1744
1729
1823
1950
2054
2106
2083
1961
1840
1801
1841
1935
2035
2128
2163
2089
1948
1857
1853
1935
2046
2143
2195
2162
2031
1917
1901
1955
2047
2121
2148
2091
1938
1797
1735
1771
1856
1952
2043
2071
1988
1855
1763
1786
1872
1971
2043
2096
2042
1905
1787
1774
1849
1955
2067
2131
2099
1957
1814
1766
1817
1911
2007
2090
2096
1995
1848
1754
1751
1827
1922
2032
2146
2149
2034
1951
1993
2170
2400
2601
2734
2764
2673
2543
2455
2433
2451
2437
2390
2309
2128
1915
1781
1747
1817
1904
1989
2031
1984
1846
1739
1735
1815
1905
1974
1988
1933
1806
1712
1726
1824
1936
2023
2078
2064
1964
1826
1752
1786
1865
1942
2006
2032
1968
1831
1746
1770
1872
1975
2054
2101
2070
1928
1790
1749
1822
1936
2026
2078
2090
1984
1851
1795
1840
1926
2017
2086
2101
2006
1879
1795
1808
1899
2003
2102
2143
2091
1943
1829
1807
1890
1999
2096
2157
2155
2064
1936
1877
1905
1983
2055
2099
2141
2105
1985
1901
1898
1993
2102
2190
2238
2199
2079
1967
1948
1997
2082
2163
2233
2248
2160
2041
2002
2053
2155
2243
2320
2338
2247
2121
2055
2066
2149
2250
2346
2383
2318
2179
2058
2023
2099
2218
2327
2411
2403
2278
2116
2035
2058
2143
2220
2261
2258
2154
1999
1912
1936
2021
2087
2123
2146
2096
1938
1793
1747
1789
1882
1975
2026
2000
1886
1744
1680
1726
1840
1929
1988
1996
1905
1761
1657
1658
1766
1887
1968
2013
1963
1818
1691
1660
1725
1814
1895
1968
1968
1858
1728
1680
1715
1803
1879
1950
1982
1904
1775
1685
1703
1796
1889
1977
2018
1949
1815
1719
1719
1797
1896
1982
2063
2071
1955
1843
1799
1803
1863
1926
1981
1984
1891
1764
1695
1718
1825
1925
1985
1998
1923
1797
1710
1696
1759
1860
1968
2044
2032
1923
1791
1730
1761
1840
1938
2041
2096
2025
1883
1780
1769
1819
1885
1949
1991
1971
1847
1707
1690
1790
1903
2001
2071
2064
1925
1768
1699
1731
1818
1904
1987
2018
1937
1823
1754
1775
1862
1950
2021
2045
1969
1835
1727
1728
1807
1903
1974
2026
2018
1915
1794
1739
1787
1887
1982
2026
2039
1963
1846
1780
1783
1856
1946
2005
2005
1934
1810
1731
1757
1861
1968
2027
2041
2002
1891
1767
1718
1787
1902
2001
2064
2069
1972
1829
1732
1733
1811
1911
2002
2055
1991
1846
1745
1758
1842
1937
2031
2107
2064
1926
1801
1762
1813
1922
2019
2095
2081
1962
1818
1743
1775
1872
1966
2019
2029
1968
1847
1772
1794
1907
2021
2095
2113
2066
1938
1837
1811
1867
1977
2043
2111
2124
2018
1888
1840
1890
1996
2092
2158
2192
2115
1974
1893
1887
1926
1962
1986
2019
1986
1855
1730
1705
1775
1888
1993
2064
2055
1925
1803
1729
1744
1819
1919
1999
2034
1954
1827
1757
1761
1825
1911
2014
2096
2080
1938
1790
1735
1773
1855
1936
2020
2054
1977
1893
1881
1968
2155
2350
2512
2624
2598
2479
2383
2380
2448
2512
2527
2462
2289
2032
1807
1702
1717
1793
1869
1936
1939
1848
1723
1679
1730
1833
1931
2014
2047
1968
1809
1701
1725
1839
1946
2011
2045
1995
1863
1747
1729
1807
1922
2023
2091
2075
1945
1791
1706
1742
1851
1949
2021
2043
1955
1823
1749
1773
1863
1970
2058
2102
2061
1931
1810
1759
1819
1936
2030
2096
2070
1943
1812
1776
1831
1933
2032
2112
2125
2027
1868
1776
1826
1941
2035
2105
2140
2095
1951
1829
1808
1902
2035
2157
2206
2179
2047
1900
1844
1893
2003
2133
2205
2219
2123
1975
1893
1916
2007
2127
2212
2256
2202
2077
1968
1970
2101
2225
2301
2325
2288
2160
2023
1987
2064
2193
2302
2351
2354
2262
2136
2076
2112
2209
2299
2362
2370
2294
2161
2070
2078
2147
2221
2288
2317
2256
2102
1945
1889
1933
2023
2117
2176
2154
2023
1851
1754
1774
1855
1936
2000
2019
1945
1819
1725
1715
1777
1855
1914
1942
1919
1799
1680
1654
1721
1824
1917
1982
1973
1854
1695
1601
1625
1723
1825
1927
1983
1930
1783
1675
1671
1757
1856
1944
1999
1968
1822
1675
1629
1707
1822
1922
2000
2005
1917
1803
1732
1734
1827
1923
2000
2029
1954
1821
1712
1712
1792
1879
1955
1987
1973
1850
1712
1699
1774
1877
1970
2032
2032
1923
1776
1690
1715
1818
1913
1987
2017
1939
1808
1727
1747
1841
1942
2021
2071
2020
1889
1750
1706
1758
1863
1966
2047
2053
1906
1744
1661
1710
1829
1941
2015
2045
1967
1823
1712
1721
1855
1996
2070
2059
1952
1798
1669
1653
1741
1863
1971
2053
2059
1952
1818
1772
1815
1919
1993
2042
2059
1967
1826
1741
1751
1848
1936
2003
2055
2004
1862
1738
1702
1765
1865
1971
2047
2060
1952
1821
1747
1778
1877
1990
2082
2092
1987
1829
1731
1753
1855
1949
2021
2064
2015
1907
1831
1827
1899
1987
2078
2121
2069
1902
1735
1667
1724
1861
2000
2101
2117
2032
1909
1797
1768
1849
1986
2106
2170
2139
2007
1889
1861
1934
2029
2106
2150
2122
1994
1856
1805
1872
2000
2109
2176
2189
2078
1905
1802
1814
1906
2006
2085
2119
2065
1930
1814
1776
1843
1957
2067
2119
2085
1949
1795
1737
1779
1872
1966
2034
2047
1954
1815
1739
1766
1857
1951
2039
2090
2027
1875
1746
1725
1817
1951
2083
2174
2175
2075
1970
1978
2112
2316
2500
2637
2696
2635
2498
2409
2390
2443
2466
2437
2361
2189
1949
1763
1696
1742
1823
1901
1961
1971
1879
1764
1723
1776
1885
1970
2032
2036
1939
1797
1713
1746
1856
1957
2045
2096
2030
1889
1775
1767
1856
1967
2032
2057
2005
1885
1776
1763
1837
1941
2032
2119
2147
2044
1893
1799
1805
1872
1954
2019
2059
2006
1878
1771
1766
1853
1966
2070
2141
2115
1983
1856
1828
1879
1967
2039
2110
2131
2032
1902
1827
1855
1959
2058
2128
2156
2089
1966
1859
1847
1931
2045
2131
2190
2181
2054
1894
1855
1926
2034
2136
2205
2209
2115
1993
1936
1968
2053
2138
2206
2242
2171
2039
1970
1994
2086
2199
2289
2339
2311
2191
2064
2019
2096
2194
2303
2385
2366
2234
2068
1990
2057
2176
2287
2367
2399
2330
2182
2078
2073
2141
2202
2240
2249
2190
2043
1894
1840
1905
2005
2095
2143
2123
1984
1826
1753
1776
1847
1933
1998
2001
1923
1777
1678
1689
1792
1893
1973
2011
1955
1804
1661
1632
1699
1806
1910
1984
1984
1863
1709
1636
1700
1816
1909
1965
1968
1871
1728
1649
1683
1786
1888
1978
2015
1954
1797
1666
1649
1737
1840
1935
2015
2032
1920
1778
1705
1723
1803
1879
1955
2007
1955
1836
1754
1767
1845
1936
2000
2023
1957
1807
1683
1657
1734
1866
1968
2028
2015
1893
1755
1715
1771
1882
1973
2031
2033
1939
1798
1710
1729
1829
1923
1999
2032
1968
1838
1709
1683
1789
1904
1983
2038
2017
1879
1740
1683
1751
1875
1985
2032
2014
1901
1751
1667
1681
1803
1935
2045
2096
2022
1866
1748
1744
1813
1911
1999
2061
2032
1905
1775
1717
1757
1866
1963
2017
2019
1923
1801
1745
1794
1877
1953
2009
2047
1987
1841
1734
1754
1867
1990
2087
2115
2064
1918
1790
1745
1793
1874
1962
2019
2023
1925
1808
1735
1765
1869
1970
2044
2082
2009
1856
1744
1738
1810
1919
2010
2071
2043
1910
1779
1743
1803
1907
2000
2065
2063
1959
1823
1762
1823
1959
2065
2122
2123
2047
1887
1776
1771
1863
1969
2062
2097
2046
1907
1798
1781
1858
1962
2057
2136
2131
2042
1902
1833
1868
1968
2059
2144
2177
2110
1968
1863
1857
1936
2032
2118
2170
2139
2000
1885
1867
1919
1995
2042
2075
2055
1921
1771
1712
1749
1851
1963
2065
2103
2032
1895
1792
1785
1855
1936
2009
2067
2027
1890
1769
1756
1846
1950
2007
2038
2011
1888
1763
1745
1833
1969
2116
2247
2338
2303
2213
2193
2289
2454
2619
2755
2833
2794
2625
2429
2308
2265
2239
2210
2166
2090
1917
1739
1658
1712
1835
1947
2025
2054
1958
1809
1709
1719
1818
1925
2015
2095
2082
1938
1787
1728
1791
1887
1983
2057
2036
1915
1776
1714
1775
1875
1968
2046
2078
1989
1850
1763
1778
1856
1953
2059
2122
2065
1901
1767
1747
1824
1929
2018
2098
2091
1962
1823
1776
1832
1930
2027
2103
2126
2039
1913
1847
1881
1957
2011
2073
2124
2064
1915
1814
1813
1902
2007
2098
2170
2169
2045
1911
1876
1929
2005
2073
2127
2154
2082
1955
1867
1877
1984
2096
2179
2225
2173
2039
1927
1915
2002
2133
2253
2340
2326
2186
2019
1967
2020
2121
2222
2298
2315
2223
2090
2030
2089
2177
2263
2338
2375
2290
2114
1991
2005
2138
2277
2358
2389
2339
2191
2035
1971
2000
2085
2160
2224
2224
2108
1953
1870
1885
1968
2064
2128
2155
2096
1957
1842
1817
1874
1943
1984
1984
1935
1793
1664
1630
1707
1808
1877
1936
1957
1874
1763
1691
1708
1791
1873
1943
1982
1920
1775
1665
1663
1751
1867
1947
1997
1968
1842
1712
1681
1739
1841
1934
2001
2019
1951
1825
1758
1776
1850
1939
2022
2041
1942
1791
1659
1646
1730
1843
1949
2002
1977
1854
1745
1741
1808
1889
1943
1999
1997
1877
1735
1691
1744
1839
1936
2018
2070
1991
1839
1712
1683
1761
1863
1955
2037
2032
1915
1809
1815
1917
1984
2029
2033
1995
1866
1712
1648
1710
1820
1927
2030
2070
1968
1791
1670
1669
1751
1857
1959
2031
2015
1902
1791
1775
1829
1898
1954
1998
2000
1919
1802
1728
1771
1879
2000
2071
2069
1962
1818
1717
1729
1829
1934
2032
2097
2047
1892
1743
1706
1797
1913
1993
2039
2032
1913
1764
1699
1754
1861
1955
2027
2062
1983
1837
1731
1754
1857
1964
2037
2090
2029
1872
1744
1719
1792
1903
1995
2068
2076
1969
1822
1751
1801
1911
1987
2030
2035
1957
1831
1750
1768
1858
1939
1998
2039
2014
1891
1781
1786
1863
1957
2044
2123
2126
2001
1872
1837
1899
2000
2090
2138
2151
2055
1906
1809
1826
1937
2047
2121
2151
2101
1968
1855
1843
1936
2029
2088
2107
2052
1917
1784
1734
1783
1873
1984
2073
2095
2000
1866
1776
1801
1890
1990
2063
2075
1987
1835
1713
1725
1837
1965
2067
2123
2085
1946
1794
1731
1777
1869
1958
2026
2034
1957
1866
1830
1881
1990
2111
2221
2308
2325
2273
2279
2383
2559
2738
2820
2801
2701
2481
2249
2105
2061
2064
2077
2067
2011
1877
1723
1663
1724
1852
1963
2032
2064
1983
1836
1723
1712
1793
1897
1991
2063
2047
1937
1808
1749
1795
1878
1947
1991
2000
1908
1759
1678
1712
1808
1918
2007
2060
1969
1841
1728
1741
1856
1964
2033
2067
2021
1898
1773
1729
1791
1903
2011
2094
2103
1987
1833
1751
1809
1929
2054
2157
2194
2105
1919
1787
1779
1878
1996
2103
2172
2115
1936
1778
1749
1834
1935
2032
2109
2119
2004
1863
1810
1862
1970
2077
2155
2191
2127
1989
1882
1891
1982
2081
2157
2198
2171
2047
1939
1923
2010
2141
2253
2320
2308
2185
2023
1947
1991
2094
2192
2278
2349
2307
2183
2073
2064
2146
2247
2325
2359
2301
2140
2000
1968
2061
2182
2290
2352
2346
2223
2047
1939
1953
2038
2139
2223
2238
2137
1959
1839
1840
1922
2007
2079
2093
2015
1877
1761
1744
1808
1865
1920
1981
1987
1886
1741
1664
1710
1816
1894
1939
1951
1853
1700
1605
1638
1755
1878
1969
2000
1936
1782
1659
1649
1745
1845
1926
1995
1984
1866
1725
1664
1722
1827
1920
1981
1991
1927
1814
1738
1776
1872
1974
2064
2078
1983
1808
1663
1633
1719
1834
1921
1993
2007
1931
1798
1721
1758
1874
1980
2045
2053
1946
1793
1691
1702
1778
1856
1936
2007
1999
1878
1755
1733
1811
1911
1989
2044
2044
1950
1815
1745
1771
1841
1938
2032
2054
1968
1840
1734
1731
1804
1891
1970
2013
1959
1824
1717
1716
1791
1901
1975
2013
1993
1856
1706
1664
1744
1871
1982
2043
2038
1934
1787
1727
1767
1863
1967
2041
2082
2009
1857
1743
1739
1829
1931
2001
2039
2026
1920
1793
1742
1808
1927
2019
2093
2090
1959
1806
1717
1751
1869
1968
2043
2071
2002
1856
1744
1744
1839
1936
2018
2067
2047
1914
1776
1739
1806
1899
1983
2042
2035
1928
1787
1726
1772
1883
2000
2064
2083
2000
1856
1743
1743
1851
1968
2067
2127
2107
1975
1860
1852
1943
2075
2159
2195
2155
2004
1845
1776
1838
1966
2066
2138
2171
2103
1951
1840
1844
1935
2031
2108
2139
2097
1959
1807
1770
1818
1909
1995
2047
2057
1955
1835
1779
1813
1904
2000
2065
2082
2000
1890
1802
1785
1857
1953
2030
2071
2038
1911
1795
1777
1834
1923
2000
2047
2032
1936
1821
1786
1877
2025
2163
2293
2402
2416
2373
2370
2432
2553
2689
2768
2781
2686
2447
2187
2020
1983
2000
2025
2029
1984
1854
1719
1686
1769
1883
1984
2058
2064
1971
1840
1755
1758
1845
1949
2021
2069
2017
1864
1717
1687
1758
1872
1966
2029
2023
1919
1789
1739
1807
1921
2016
2078
2091
2002
1862
1747
1737
1839
1959
2044
2094
2032
1884
1747
1727
1808
1930
2043
2134
2151
2034
1899
1837
1867
1953
2047
2130
2151
2033
1872
1774
1806
1920
2027
2096
2123
2074
1948
1829
1814
1904
2014
2111
2190
2176
2025
1862
1799
1851
1975
2109
2206
2235
2149
1998
1915
1920
1992
2087
2176
2240
2221
2113
1990
1965
2032
2137
2203
2254
2267
2191
2061
1993
2025
2112
2217
2305
2343
2275
2145
2041
2043
2128
2239
2338
2398
2346
2195
2064
2035
2128
2229
2288
2337
2339
2213
2037
1955
1977
2067
2151
2197
2192
2082
1922
1822
1818
1900
1984
2057
2099
2053
1875
1713
1665
1735
1835
1918
1975
1951
1826
1683
1634
1695
1801
1904
1985
2009
1899
1742
1646
1658
1766
1878
1984
2030
1927
1789
1669
1651
1722
1819
1936
2047
2045
1927
1779
1719
1770
1860
1935
1975
1971
1872
1718
1644
1707
1839
1956
2015
2032
1943
1790
1683
1694
1787
1895
1968
2016
2000
1876
1761
1722
1777
1872
1967
2021
2011
1910
1785
1734
1773
1872
1965
2033
2067
1991
1856
1750
1739
1811
1898
1965
2026
2000
1875
1750
1714
1793
1896
1969
2022
2015
1904
1766
1716
1781
1895
1998
2076
2095
1999
1840
1733
1737
1806
1888
1967
2018
1994
1863
1736
1730
1824
1936
2017
2079
2068
1936
1787
1726
1795
1902
1968
2021
2037
1950
1799
1712
1747
1858
1969
2047
2103
2066
1903
1744
1693
1766
1885
1975
2047
2064
1953
1809
1744
1766
1855
1957
2035
2067
1974
1843
1751
1765
1878
1989
2076
2123
2083
1958
1851
1842
1904
1981
2062
2128
2138
2032
1898
1827
1857
1953
2047
2119
2151
2080
1918
1807
1810
1878
1951
2005
2036
1966
1823
1716
1715
1799
1900
1987
2042
2031
1920
1777
1712
1756
1853
1953
2023
2032
1967
1844
1751
1774
1860
1946
2013
2061
2005
1856
1712
1680
1777
1911
2035
2141
2192
2114
1994
1957
2055
2232
2442
2615
2660
2550
2395
2295
2289
2320
2315
2288
2239
2103
1900
1735
1691
1750
1832
1904
1966
1965
1858
1738
1685
1751
1871
1982
2061
2063
1950
1797
1712
1740
1843
1977
2098
2142
2080
1936
1808
1791
1871
1931
1969
2000
1968
1847
1735
1719
1789
1896
2002
2086
2093
1983
1851
1773
1791
1886
1987
2061
2093
2040
1917
1826
1836
1935
2038
2127
2176
2141
1987
1843
1807
1853
1967
2065
2145
2167
2064
1883
1759
1781
1888
2000
2122
2177
2109
1955
1840
1843
1934
2045
2139
2178
2135
2013
1897
1866
1936
2047
2173
2266
2286
2166
2003
1925
1966
2074
2186
2285
2320
2251
2113
2017
2018
2117
2230
2315
2352
2304
2181
2067
2064
2144
2215
2265
2303
2305
2207
2085
2033
2096
2195
2281
2351
2382
2317
2171
2047
2034
2117
2203
2265
2299
2256
2125
1974
1890
1904
1986
2058
2103
2090
1972
1822
1744
1774
1858
1943
2004
2030
1950
1803
1671
1648
1755
1875
1958
2000
1951
1803
1653
1600
1658
1762
1865
1937
1942
1841
1708
1646
1691
1794
1898
1983
2022
1918
1750
1650
1648
1727
1835
1934
1999
1982
1863
1738
1701
1766
1873
1943
1987
1978
1863
1723
1669
1719
1829
1925
2002
2037
1968
1827
1713
1712
1807
1915
2000
2027
1961
1825
1711
1692
1761
1863
1955
2021
2032
1936
1793
1718
1744
1829
1920
1999
2025
1935
1793
1702
1733
1830
1909
1970
2015
1969
1839
1703
1681
1778
1914
2027
2085
2059
1921
1758
1683
1749
1873
1963
2022
2031
1936
1799
1728
1762
1855
1950
2019
2067
2011
1841
1683
1647
1719
1837
1936
2031
2032
1915
1777
1729
1781
1875
1975
2047
2066
1974
1840
1755
1766
1851
1968
2081
2125
2064
1909
1787
1777
1859
1962
2053
2113
2097
1986
1871
1833
1904
1997
2081
2125
2106
1987
1857
1803
1831
1906
1997
2079
2103
2007
1839
1714
1694
1776
1890
1995
2066
2046
1920
1786
1717
1750
1870
1973
2045
2047
1959
1826
1739
1763
1883
1991
2064
2106
2031
1860
1728
1719
1801
1877
1937
1987
1983
1904
1837
1838
1935
2078
2192
2287
2323
2287
2219
2210
2303
2434
2559
2656
2675
2556
2317
2107
1985
1966
1984
2015
2038
1989
1830
1671
1615
1679
1805
1927
2023
2064
1970
1811
1711
1727
1836
1945
2030
2064
1971
1812
1732
1782
1872
1974
2047
2087
2043
1904
1746
1694
1769
1889
2016
2118
2130
2026
1861
1761
1781
1866
1952
2031
2070
2000
1865
1765
1763
1851
2000
2144
2213
2141
1966
1808
1759
1819
1943
2058
2106
2084
1959
1829
1773
1819
1920
2025
2115
2155
2096
1973
1883
1868
1937
2039
2112
2146
2124
2007
1899
1865
1928
2035
2134
2186
2180
2084
1939
1879
1938
2064
2169
2233
2251
2183
2042
1941
1949
2032
2151
2243
2302
2281
2162
2055
2007
2058
2151
2241
2311
2331
2245
2115
2040
2090
2196
2306
2387
2416
2337
2165
2047
2045
2141
2243
2335
2370
2306
2146
1994
1951
1983
2046
2123
2187
2170
2023
1844
1747
1769
1857
1958
2033
2037
1931
1775
1664
1670
1751
1851
1938
1993
1951
1803
1654
1639
1729
1829
1908
1965
1958
1834
1686
1639
1705
1809
1902
1952
1954
1871
1749
1679
1707
1808
1914
2013
2073
1999
1810
1653
1623
1709
1821
1919
1981
1979
1867
1729
1679
1734
1842
1957
2038
2065
1955
1783
1670
1686
1798
1920
2003
2045
1973
1825
1715
1712
1794
1894
1981
2039
2021
1903
1759
1711
1753
1885
1984
2056
2064
1968
1818
1728
1744
1847
1943
2013
2063
1995
1844
1733
1749
1840
1911
1978
2014
1989
1893
1769
1731
1799
1903
1991
2061
2062
1947
1791
1698
1725
1823
1935
2019
2053
1974
1821
1703
1710
1831
1939
2019
2084
2064
1909
1746
1699
1777
1897
1989
2067
2091
1979
1827
1744
1783
1873
1967
2046
2076
1993
1856
1747
1753
1840
1956
2047
2099
2057
1911
1759
1717
1776
1872
1965
2059
2082
1969
1808
1730
1760
1881
2015
2114
2158
2079
1926
1820
1811
1892
1989
2077
2145
2122
1990
1875
1855
1914
1995
2069
2130
2129
2015
1870
1809
1843
1923
2007
2066
2070
1984
1842
1743
1746
1838
1937
2026
2079
2032
1881
1731
1702
1765
1873
1983
2064
2079
1981
1841
1754
1761
1859
1959
2034
2070
1991
1836
1709
1680
1770
1884
1999
2101
2128
2032
1956
1990
2126
2301
2480
2654
2738
2678
2543
2455
2459
2518
2537
2480
2384
2201
1965
1777
1709
1765
1857
1935
1985
1954
1819
1702
1697
1787
1907
2006
2075
2062
1937
1789
1701
1726
1813
1916
1998
2031
1963
1807
1712
1716
1815
1935
2022
2059
2013
1889
1778
1757
1830
1926
2017
2081
2046
1922
1798
1755
1802
1882
1975
2065
2083
1996
1867
1777
1806
1918
2026
2109
2160
2110
1947
1797
1758
1825
1929
2029
2089
2089
1971
1833
1776
1840
1954
2047
2107
2128
2046
1903
1808
1837
1936
2034
2124
2166
2112
1981
1879
1857
1922
2032
2133
2205
2224
2122
1979
1904
1951
2079
2178
2256
2288
2217
2096
1999
2005
2095
2169
2247
2305
2274
2145
2017
1996
2091
2222
2355
2419
2383
2229
2067
1994
2037
2143
2245
2322
2347
2256
2110
2001
1995
2076
2175
2250
2278
2206
2057
1924
1900
1957
2047
2115
2150
2119
1974
1821
1750
1788
1871
1932
1987
2000
1934
1811
1735
1758
1840
1914
1973
1985
1904
1751
1645
1649
1746
1866
1945
1989
1955
1819
1673
1616
1673
1818
1938
2021
2045
1945
1802
1714
1731
1826
1931
2009
2062
1995
1833
1687
1679
1785
1904
1978
2026
2000
1885
1761
1728
1784
1871
1942
1999
2009
1925
1799
1724
1762
1904
2031
2123
2141
2028
1845
1709
1680
1761
1869
1962
2032
2021
1907
1781
1747
1808
1910
1985
2047
2057
1943
1794
1728
1763
1861
1968
2052
2085
1999
1840
1719
1712
1809
1931
2032
2110
2081
1930
1772
1721
1775
1878
1987
2064
2065
1941
1792
1725
1765
1872
1971
2038
2071
2000
1867
1753
1761
1857
1959
2035
2092
2064
1925
1792
1755
1829
1943
2039
2101
2077
1936
1777
1715
1770
1878
1991
2064
2075
1977
1819
1726
1739
1831
1946
2047
2119
2087
1945
1791
1741
1808
1920
2007
2080
2079
1971
1838
1765
1808
1893
1990
2091
2128
2059
1899
1781
1790
1873
1962
2031
2064
2014
1894
1784
1771
1856
1965
2062
2115
2094
1961
1818
1761
1835
1963
2077
2160
2183
2096
1936
1840
1858
1957
2071
2157
2194
2123
1965
1851
1852
1923
2032
2135
2193
2170
2020
1857
1795
1843
1926
2009
2101
2140
2046
1906
1818
1818
1889
1971
2053
2096
2039
1895
1773
1741
1814
1928
2005
2073
2062
1937
1805
1757
1798
1902
1992
2071
2106
2027
1877
1771
1765
1853
1921
1994
2093
2131
2076
2003
2023
2145
2320
2512
2682
2746
2672
2559
2535
2595
2642
2640
2609
2545
2346
2045
1823
1746
1802
1887
1980
2047
2010
1871
1759
1749
1819
1905
1973
2014
2000
1872
1735
1691
1745
1842
1939
2009
2006
1918
1814
1746
1767
1852
1957
2053
2094
2025
1871
1745
1726
1794
1897
1997
2090
2083
1955
1819
1755
1781
1878
1974
2037
2034
1956
1862
1797
1819
1913
1991
2070
2121
2058
1905
1815
1825
1890
1976
2058
2102
2062
1915
1774
1727
1794
1934
2069
2147
2144
2029
1876
1808
1837
1938
2047
2125
2160
2107
1952
1851
1855
1936
2047
2141
2195
2177
2042
1917
1894
1977
2089
2187
2275
2307
2211
2042
1935
1942
2028
2138
2235
2273
2224
2095
1970
1961
2055
2169
2269
2342
2320
2197
2064
2026
2096
2193
2281
2352
2352
2247
2099
2032
2069
2158
2227
2271
2271
2162
1989
1879
1879
1971
2112
2211
2225
2144
1946
1749
1663
1729
1872
1984
2062
2064
1930
1754
1643
1645
1735
1861
1967
2018
1953
1803
1686
1658
1728
1829
1904
1942
1904
1775
1648
1623
1715
1828
1927
2003
2002
1872
1726
1675
1712
1811
1910
1975
2005
1927
1774
1667
1686
1786
1879
1955
2000
1942
1793
1644
1603
1679
1784
1889
1990
2035
1935
1779
1703
1744
1845
1937
2001
2019
1932
1790
1694
1695
1791
1913
2014
2077
2007
1855
1710
1663
1739
1856
1944
1985
1997
1917
1813
1765
1783
1857
1926
1984
2000
1923
1792
1711
1726
1802
1865
1923
1973
1943
1810
1695
1687
1780
1895
1983
2033
2006
1881
1747
1675
1707
1813
1937
2019
2029
1936
1792
1686
1691
1791
1904
1991
2023
1965
1834
1738
1719
1808
1918
1985
2023
2007
1901
1779
1748
1793
1856
1918
1979
1989
1891
1755
1683
1715
1811
1907
1989
2043
2006
1882
1757
1723
1790
1903
2007
2074
2045
1914
1763
1712
1757
1851
1939
2010
2030
1937
1808
1744
1779
1895
1984
2018
2037
1983
1838
1714
1701
1791
1903
1994
2038
2017
1912
1788
1738
1785
1895
1982
2027
2042
1938
1815
1757
1773
1846
1937
2015
2046
1985
1863
1786
1811
1904
2014
2103
2149
2112
1975
1841
1791
1840
1938
2037
2112
2125
2030
1903
1823
1841
1919
1991
2047
2082
2006
1874
1777
1776
1857
1946
2001
2025
1984
1879
1779
1763
1825
1905
1978
2024
2013
1911
1781
1705
1744
1863
1974
2055
2064
1993
1862
1777
1776
1847
1923
1985
2012
1968
1853
1733
1695
1774
1895
2006
2110
2154
2121
2091
2115
2210
2375
2544
2677
2767
2741
2643
2528
2467
2448
2416
2359
2299
2174
1968
1808
1759
1793
1870
1938
1990
1984
1886
1753
1712
1759
1835
1909
1974
2011
1957
1835
1749
1771
1831
1888
1940
1984
1951
1843
1731
1721
1779
1859
1923
1982
1991
1907
1793
1733
1776
1859
1930
2000
2046
1993
1885
1798
1791
1870
1968
2042
2076
2037
1938
1838
1786
1831
1921
2000
2054
2039
1941
1831
1770
1798
1894
1989
2071
2099
2027
1904
1825
1835
1917
2000
2083
2127
2096
1982
1875
1852
1913
1994
2073
2142
2153
2069
1956
1908
1943
2045
2146
2222
2254
2167
2018
1923
1926
2005
2102
2187
2256
2220
2111
1986
1946
2003
2118
2220
2294
2325
2295
2203
2119
2112
2153
2187
2239
2294
2256
2151
2073
2069
2138
2217
2285
2336
2304
2191
2087
2063
2105
2162
2217
2247
2223
2125
1997
1930
1951
1985
2027
2074
2083
2007
1883
1787
1791
1856
1930
1988
2016
1969
1845
1734
1711
1758
1837
1902
1936
1915
1824
1722
1684
1743
1837
1923
1966
1945
1861
1745
1680
1702
1793
1885
1942
1965
1915
1792
1691
1671
1741
1837
1904
1959
1949
1857
1747
1703
1755
1847
1936
1996
2007
1955
1861
1760
1728
1783
1869
1936
1970
1934
1823
1731
1723
1799
1895
1961
2001
1991
1899
1807
1789
1811
1853
1901
1942
1953
1882
1758
1687
1712
1808
1907
1987
2032
2000
1899
1803
1774
1815
1890
1971
2023
2017
1913
1783
1743
1822
1919
1958
1981
1989
1918
1795
1723
1733
1805
1900
1990
2047
1998
1890
1801
1773
1823
1893
1957
2001
1991
1882
1761
1722
1761
1867
1936
1999
2009
1936
1840
1805
1823
1872
1935
1997
2038
1995
1879
1793
1787
1839
1890
1942
1998
1996
1903
1783
1745
1799
1926
2036
2096
2071
1954
1823
1775
1794
1862
1929
1987
2014
1967
1859
1783
1790
1855
1936
2000
2038
2021
1931
1829
1795
1841
1932
1986
2035
2034
1940
1808
1757
1807
1892
1965
2020
2080
2032
1913
1821
1808
1856
1927
1986
2023
1995
1897
1829
1825
1889
1961
2007
2038
2018
1917
1808
1771
1817
1903
1991
2078
2123
2067
1943
1858
1863
1936
2019
2095
2132
2107
2009
1917
1878
1913
1980
2055
2110
2099
2012
1919
1863
1871
1943
2015
2075
2093
2005
1894
1835
1835
1872
1932
2017
2081
2030
1891
1772
1750
1836
1917
1968
2013
2019
1945
1861
1814
1843
1915
1985
2034
2065
2000
1890
1824
1839
1889
1926
1959
1979
1936
1838
1775
1797
1879
1968
2071
2148
2176
2149
2126
2179
2321
2512
2674
2791
2849
2783
2634
2494
2398
2346
2288
2235
2175
2055
1879
1735
1676
1719
1837
1951
2023
2023
1921
1805
1774
1811
1902
1984
2015
1996
1899
1775
1714
1744
1834
1917
1982
2018
1984
1895
1810
1793
1851
1927
1991
2047
2059
1959
1851
1811
1845
1904
1973
2047
2074
1995
1877
1811
1823
1900
1974
2029
2057
2013
1917
1837
1829
1895
1968
2026
2077
2053
1959
1873
1840
1884
1983
2078
2141
2151
2069
1939
1871
1874
1936
2005
2083
2133
2112
2006
1922
1916
1966
2045
2125
2166
2147
2064
1979
1963
2005
2069
2123
2160
2163
2094
1982
1953
2006
2085
2163
2224
2253
2230
2128
2059
2069
2138
2217
2288
2318
2288
2177
2077
2045
2112
2207
2293
2368
2391
2316
2211
2172
2192
2240
2294
2335
2342
2274
2146
2064
2096
2201
2261
2275
2271
2203
2065
1939
1904
1949
2019
2073
2112
2122
2043
1905
1781
1747
1814
1903
1978
2005
1952
1846
1766
1770
1861
1940
1991
2004
1963
1843
1733
1697
1749
1829
1895
1941
1939
1871
1779
1743
1780
1842
1904
1959
1974
1897
1787
1719
1734
1815
1891
1951
2001
1984
1872
1763
1739
1799
1873
1934
1981
1979
1877
1767
1745
1821
1911
1972
2015
2016
1926
1803
1728
1748
1831
1907
1969
2003
1978
1872
1760
1722
1773
1851
1931
2000
2006
1929
1840
1791
1823
1898
1975
2043
2046
1950
1814
1727
1727
1796
1888
1967
2023
1987
1887
1777
1743
1801
1885
1953
2015
2005
1904
1781
1739
1782
1858
1931
1995
2033
2002
1902
1813
1793
1839
1904
1983
2017
1977
1871
1785
1772
1823
1904
1989
2041
2010
1904
1799
1745
1782
1858
1947
2029
2046
1955
1811
1731
1758
1841
1920
1983
2015
1979
1873
1797
1797
1863
1920
1965
2000
2014
1938
1837
1791
1825
1895
1967
2017
2018
1950
1856
1798
1792
1837
1901
1955
1995
1943
1845
1761
1746
1801
1872
1943
2015
2032
1966
1865
1808
1821
1873
1954
2011
2014
1954
1850
1787
1797
1856
1927
1984
2056
2039
1947
1857
1855
1913
1987
2064
2121
2116
2031
1949
1917
1955
2005
2041
2087
2103
2019
1905
1835
1851
1915
1978
2030
2046
2001
1902
1809
1808
1887
1962
1995
2014
1991
1902
1815
1786
1819
1881
1931
1984
2019
1956
1855
1783
1806
1893
1971
2010
2027
1978
1865
1792
1811
1903
1980
2032
2033
1984
1870
1761
1712
1754
1847
1957
2065
2128
2097
2025
1997
2054
2176
2332
2492
2607
2622
2559
2496
2478
2479
2465
2416
2335
2193
1991
1815
1742
1745
1778
1837
1904
1933
1885
1810
1767
1815
1891
1939
1984
1994
1937
1845
1778
1795
1863
1933
1986
2021
1984
1875
1778
1762
1798
1869
1934
1984
1993
1916
1802
1746
1786
1863
1927
1985
2017
1971
1875
1811
1807
1858
1933
1988
2015
1997
1917
1831
1794
1835
1905
1967
2017
2062
2017
1933
1869
1874
1930
1959
1993
2042
2022
1942
1860
1848
1897
1954
2018
2086
2067
1987
1909
1888
1933
1984
2045
2131
2157
2075
1973
1934
1942
1993
2043
2096
2113
2070
1981
1917
1934
2026
2118
2211
2286
2265
2147
2030
1984
2021
2096
2160
2224
2244
2174
2096
2073
2122
2186
2247
2318
2357
2307
2185
2097
2106
2185
2274
2335
2366
2321
2218
2110
2083
2121
2165
2207
2253
2246
2160
2043
1998
2011
2055
2085
2101
2094
1990
1855
1774
1781
1840
1899
1956
1996
1937
1821
1713
1693
1740
1797
1875
1935
1940
1856
1739
1680
1707
1776
1850
1911
1931
1858
1742
1675
1697
1771
1850
1893
1915
1866
1771
1697
1706
1789
1863
1925
1993
1982
1854
1724
1665
1712
1792
1863
1920
1939
1871
1767
1727
1772
1856
1936
1997
2010
1935
1801
1706
1727
1814
1877
1931
1974
1961
1863
1760
1729
1773
1840
1904
1968
1995
1931
1833
1776
1791
1858
1933
1983
2026
1983
1887
1797
1755
1797
1854
1910
1955
1942
1847
1745
1723
1778
1856
1925
1984
2005
1931
1809
1741
1762
1856
1947
1990
2000
1929
1806
1716
1719
1785
1865
1930
1984
1977
1872
1769
1749
1803
1857
1903
1956
1984
1919
1836
1786
1808
1881
1938
1986
2003
1951
1861
1795
1806
1865
1919
1972
2011
1986
1886
1785
1765
1809
1867
1933
2007
2033
1939
1819
1764
1791
1868
1930
1975
1999
1956
1855
1787
1807
1885
1941
1994
2021
1983
1865
1761
1740
1795
1885
1964
2019
2032
1966
1866
1814
1830
1889
1968
2035
2068
1991
1863
1791
1807
1882
1968
2037
2084
2047
1953
1870
1862
1931
2010
2089
2145
2138
2027
1894
1841
1872
1946
2032
2126
2145
2067
1935
1839
1821
1869
1936
2017
2064
2019
1911
1808
1782
1840
1919
1994
2032
2022
1933
1810
1765
1807
1878
1958
2023
2044
1978
1863
1791
1808
1879
1964
2010
2035
1994
1873
1775
1771
1836
1918
1995
2064
2060
1945
1837
1810
1890
2006
2125
2224
2303
2293
2246
2272
2387
2537
2673
2752
2751
2644
2434
2234
2115
2069
2039
2032
2003
1923
1796
1679
1650
1723
1833
1924
1989
2014
1956
1851
1793
1814
1875
1923
1973
2021
1991
1887
1779
1759
1822
1886
1957
2023
2027
1922
1785
1710
1729
1799
1872
1935
1967
1921
1829
1763
1776
1845
1919
1975
2005
1969
1885
1829
1849
1918
1973
2007
2047
2034
1947
1861
1825
1856
1917
1973
2031
2073
2007
1901
1856
1887
1960
2029
2095
2132
2096
1970
1872
1843
1885
1957
2016
2068
2069
1991
1902
1867
1905
1968
2027
2096
2112
2047
1963
1917
1937
2004
2085
2166
2223
2191
2075
1975
1954
1989
2067
2147
2225
2256
2191
2096
2070
2116
2183
2247
2309
2348
2304
2203
2129
2129
2186
2239
2288
2320
2278
2171
2075
2054
2108
2181
2250
2302
2300
2223
2113
2066
2091
2125
2150
2167
2155
2059
1936
1873
1878
1927
1980
2021
2036
1972
1850
1767
1763
1829
1894
1934
1959
1939
1848
1749
1725
1755
1834
1921
1993
1994
1904
1789
1708
1707
1754
1805
1872
1927
1888
1783
1703
1695
1758
1840
1906
1951
1951
1880
1793
1748
1773
1830
1899
1950
1965
1902
1805
1749
1762
1803
1875
1949
1974
1917
1814
1744
1757
1821
1895
1955
1999
1986
1904
1821
1781
1799
1842
1902
1951
1965
1897
1808
1763
1791
1866
1949
2025
2045
1981
1859
1775
1774
1833
1903
1959
1993
1971
1867
1776
1764
1824
1900
1958
1999
2002
1923
1818
1773
1809
1888
1947
1986
1998
1936
1830
1746
1741
1806
1900
1967
2006
1975
1872
1790
1787
1846
1907
1959
1995
1991
1905
1790
1734
1763
1854
1937
2003
2032
1987
1907
1842
1833
1855
1894
1961
2021
1995
1894
1808
1795
1853
1915
1977
2024
2015
1908
1794
1758
1786
1851
1915
1982
2016
1968
1871
1812
1813
1856
1909
1967
2015
1984
1872
1779
1772
1824
1903
1971
2027
2017
1926
1839
1815
1877
1956
2003
2047
2075
1998
1874
1787
1787
1856
1910
1985
2025
1991
1898
1824
1810
1851
1919
1979
2027
2037
1946
1825
1765
1812
1917
2003
2071
2095
2019
1902
1822
1831
1917
2013
2082
2116
2093
1999
1927
1907
1962
2027
2082
2091
2063
1967
1877
1870
1936
2021
2100
2154
2157
2065
1951
1898
1917
1963
2000
2038
2053
2002
1878
1776
1771
1845
1950
2015
2064
2066
1975
1869
1809
1820
1853
1904
1949
2001
1965
1874
1839
1875
1955
2000
