2087
2055
1963
1872
1836
1857
1929
2021
2079
2064
1999
1905
1853
1856
1913
2002
2079
2086
2031
1934
1851
1841
1879
1973
2059
2087
2063
1965
1879
1849
1872
1947
2047
2102
2089
2019
1919
1858
1866
1920
2014
2095
2098
2042
1942
1867
1854
1897
1979
2061
2089
2065
2003
1967
2001
2128
2332
2559
2771
2864
2806
2638
2443
2283
2146
1995
1751
1378
931
496
176
42
83
269
500
726
897
1007
1087
1178
1319
1520
1744
1921
2017
2033
2000
1987
2023
2098
2204
2274
2288
2238
2143
2075
2064
2110
2197
2281
2305
2271
2179
2096
2064
2091
2163
2256
2309
2295
2222
2123
2063
2064
2121
2215
2283
2288
2239
2145
2077
2064
2108
2201
2290
2320
2288
2200
2113
2080
2109
2181
2275
2327
2315
2240
2147
2096
2112
2176
2274
2346
2350
2291
2192
2115
2106
2150
2240
2334
2368
2340
2256
2176
2153
2187
2273
2375
2432
2419
2356
2265
2219
2228
2297
2393
2463
2475
2422
2331
2261
2256
2307
2405
2493
2525
2486
2395
2309
2275
2305
2384
2480
2526
2502
2423
2319
2252
2255
2303
2384
2435
2423
2348
2224
2126
2091
2104
2160
2208
2198
2125
1997
1877
1819
1820
1872
1945
1968
1924
1831
1713
1646
1641
1686
1766
1813
1804
1731
1621
1535
1522
1569
1655
1734
1753
1710
1616
1521
1488
1517
1600
1693
1743
1723
1648
1535
1495
1506
1582
1680
1744
1743
1681
1585
1513
1505
1556
1648
1733
1759
1723
1634
1535
1515
1552
1631
1727
1775
1751
1680
1587
1535
1555
1618
1719
1787
1784
1725
1626
1555
1553
1601
1699
1782
1808
1770
1679
1597
1574
1609
1687
1781
1827
1808
1729
1627
1575
1584
1643
1733
1797
1795
1726
1621
1535
1527
1575
1665
1748
1771
1734
1639
1555
1524
1564
1648
1744
1798
1776
1695
1597
1535
1557
1622
1721
1785
1783
1725
1617
1535
1535
1594
1683
1751
1783
1739
1648
1561
1531
1570
1651
1747
1796
1776
1697
1599
1535
1561
1625
1722
1789
1790
1732
1638
1570
1568
1615
1700
1774
1787
1742
1648
1567
1535
1583
1662
1753
1793
1770
1689
1595
1535
1561
1627
1729
1794
1793
1733
1634
1566
1563
1616
1712
1794
1819
1779
1693
1613
1587
1620
1706
1800
1842
1818
1743
1649
1601
1622
1693
1793
1859
1860
1805
1707
1639
1637
1689
1789
1868
1893
1856
1766
1683
1663
1699
1779
1875
1923
1903
1826
1731
1687
1710
1776
1875
1939
1936
1872
1781
1714
1712
1767
1861
1938
1961
1921
1829
1748
1726
1763
1847
1943
1989
1974
1901
1813
1775
1794
1862
1959
2020
2015
1949
1843
1769
1763
1814
1918
2011
2057
2030
1955
1887
1871
1911
1995
2091
2129
2103
2015
1915
1859
1872
1934
2021
2080
2067
1998
1901
1830
1819
1867
1961
2042
2066
2027
1934
1851
1827
1861
1945
2037
2084
2065
1983
1895
1851
1867
1936
2034
2106
2106
2041
1946
1878
1875
1926
2017
2102
2122
2078
1981
1903
1873
1907
1998
2098
2146
2128
2045
1957
1913
1927
2000
2103
2173
2176
2114
2009
1936
1924
1979
2096
2207
2288
2333
2368
2438
2583
2745
2883
2950
2898
2751
2512
2203
1841
1456
1099
817
609
465
399
391
479
663
911
1197
1429
1575
1619
1621
1647
1731
1863
2038
2194
2274
2277
2209
2125
2096
2108
2177
2275
2336
2343
2277
2181
2113
2117
2174
2271
2349
2370
2320
2224
2145
2113
2161
2251
2339
2374
2346
2257
2167
2125
2148
2220
2317
2373
2370
2304
2206
2142
2144
2194
2289
2367
2383
2334
2237
2155
2131
2167
2254
2351
2389
2367
2289
2201
2160
2184
2259
2363
2423
2413
2345
2245
2192
2194
2251
2348
2427
2441
2391
2299
2225
2214
2261
2355
2450
2496
2471
2391
2301
2258
2278
2349
2447
2509
2512
2455
2367
2309
2319
2374
2480
2559
2559
2526
2431
2347
2323
2357
2439
2525
2559
2519
2429
2326
2275
2285
2341
2416
2443
2402
2304
2177
2090
2060
2082
2150
2198
2188
2113
1984
1873
1831
1849
1915
1985
2002
1957
1855
1747
1693
1707
1776
1870
1922
1909
1835
1732
1665
1667
1722
1815
1889
1902
1847
1745
1664
1642
1675
1761
1846
1883
1855
1770
1679
1639
1663
1741
1842
1904
1897
1830
1731
1667
1667
1722
1821
1900
1909
1856
1763
1687
1675
1718
1808
1893
1921
1891
1808
1723
1683
1710
1783
1883
1939
1929
1856
1758
1698
1703
1764
1861
1939
1946
1890
1791
1711
1695
1744
1835
1923
1963
1935
1851
1758
1726
1748
1821
1913
1966
1951
1875
1779
1726
1728
1787
1882
1949
1961
1908
1811
1742
1728
1773
1861
1949
1979
1938
1851
1755
1717
1743
1821
1919
1968
1955
1886
1790
1731
1739
1795
1886
1959
1969
1918
1815
1746
1733
1778
1873
1963
1991
1958
1871
1778
1742
1767
1840
1927
1981
1968
1900
1804
1744
1747
1808
1907
1982
1991
1934
1837
1758
1743
1779
1863
1951
1983
1952
1860
1776
1735
1771
1846
1945
1995
1996
1923
1826
1772
1776
1839
1934
2000
1999
1958
1865
1789
1774
1817
1909
2000
2035
2012
1933
1856
1831
1867
1955
2062
2118
2109
2030
1922
1862
1859
1907
1991
2059
2061
1993
1887
1806
1790
1831
1920
2003
2039
2003
1917
1826
1798
1817
1903
1999
2057
2038
1967
1867
1811
1813
1872
1969
2035
2041
1984
1879
1802
1784
1827
1922
2007
2046
2008
1919
1830
1794
1826
1905
2003
2060
2046
1975
1882
1831
1845
1914
2011
2087
2097
2035
1936
1862
1855
1901
1987
2085
2129
2126
2084
2065
2122
2274
2499
2759
2943
2975
2865
2651
2423
2211
1984
1727
1413
1084
770
528
398
427
591
832
1098
1296
1405
1430
1429
1462
1565
1724
1911
2060
2129
2123
2073
2047
2089
2161
2266
2350
2366
2320
2225
2159
2149
2202
2295
2384
2418
2389
2304
2219
2189
2221
2298
2396
2448
2432
2358
2261
2214
2227
2290
2389
2463
2469
2414
2320
2250
2240
2289
2388
2478
2505
2471
2385
2299
2261
2291
2371
2465
2517
2505
2432
2339
2289
2304
2371
2474
2546
2559
2502
2411
2341
2334
2384
2487
2583
2618
2586
2495
2413
2385
2423
2512
2618
2671
2655
2559
2483
2441
2462
2533
2643
2722
2733
2672
2559
2501
2496
2544
2647
2742
2783
2752
2666
2581
2545
2559
2654
2743
2787
2767
2673
2559
2497
2496
2538
2610
2640
2614
2514
2391
2302
2287
2333
2426
2497
2509
2446
2322
2208
2149
2157
2222
2305
2352
2336
2256
2160
2103
2109
2161
2241
2303
2288
2220
2106
2000
1988
2022
2106
2183
2223
2193
2127
2061
2047
2096
2183
2278
2320
2288
2205
2106
2062
2086
2159
2259
2334
2341
2277
2173
2096
2081
2128
2228
2319
2352
2318
2233
2151
2128
2160
2240
2327
2368
2351
2277
2187
2142
2159
2223
2315
2379
2378
2320
2226
2167
2173
2233
2335
2422
2449
2407
2318
2229
2195
2224
2301
2396
2448
2441
2375
2288
2247
2269
2336
2428
2487
2479
2406
2299
2231
2234
2295
2403
2502
2543
2512
2430
2348
2320
2349
2421
2512
2556
2527
2446
2352
2307
2326
2400
2501
2559
2546
2467
2352
2267
2256
2307
2416
2512
2554
2522
2434
2355
2324
2359
2436
2523
2559
2539
2456
2363
2317
2332
2400
2495
2559
2559
2498
2399
2325
2315
2353
2437
2513
2544
2512
2428
2347
2320
2352
2439
2542
2599
2579
2493
2395
2343
2362
2433
2535
2608
2608
2537
2437
2367
2365
2416
2514
2612
2653
2626
2539
2455
2426
2451
2525
2619
2658
2640
2551
2450
2390
2397
2448
2535
2598
2591
2523
2421
2353
2350
2390
2480
2557
2583
2543
2448
2367
2337
2363
2437
2521
2559
2538
2458
2367
2319
2327
2387
2486
2544
2546
2491
2395
2330
2321
2368
2453
2525
2544
2501
2410
2326
2297
2323
2403
2497
2531
2511
2432
2337
2286
2298
2352
2433
2491
2483
2422
2330
2283
2305
2402
2559
2752
2895
2971
2954
2873
2783
2709
2688
2663
2535
2276
1888
1452
1100
895
848
941
1083
1215
1302
1364
1449
1582
1744
1950
2148
2283
2339
2326
2304
2318
2366
2451
2546
2599
2559
2494
2400
2355
2373
2435
2510
2581
2559
2509
2411
2341
2334
2384
2467
2544
2559
2512
2421
2343
2319
2350
2429
2517
2559
2538
2451
2355
2306
2316
2374
2467
2523
2514
2448
2351
2287
2281
2330
2418
2498
2515
2478
2375
2290
2260
2291
2377
2467
2509
2482
2402
2311
2269
2288
2359
2451
2512
2510
2447
2350
2286
2286
2335
2429
2503
2521
2480
2388
2319
2302
2341
2429
2514
2557
2533
2462
2371
2334
2353
2423
2514
2580
2559
2510
2413
2352
2347
2393
2480
2547
2559
2510
2414
2322
2291
2313
2385
2466
2495
2453
2353
2237
2170
2160
2202
2273
2313
2276
2187
2061
1963
1930
1953
2015
2064
2057
1984
1875
1783
1746
1770
1840
1915
1936
1903
1809
1712
1663
1674
1733
1819
1874
1865
1795
1698
1635
1637
1682
1774
1844
1856
1811
1712
1638
1618
1660
1745
1838
1873
1853
1774
1685
1648
1665
1735
1826
1878
1873
1811
1714
1649
1646
1690
1776
1845
1855
1805
1709
1632
1616
1653
1728
1809
1841
1808
1727
1638
1599
1616
1683
1776
1831
1819
1757
1663
1604
1607
1660
1747
1821
1834
1785
1691
1611
1590
1621
1707
1790
1825
1791
1706
1615
1573
1591
1659
1747
1803
1791
1726
1627
1568
1570
1618
1710
1777
1787
1739
1643
1561
1535
1579
1663
1745
1777
1744
1661
1574
1530
1535
1619
1711
1763
1757
1691
1600
1533
1531
1584
1673
1742
1755
1706
1611
1531
1513
1559
1645
1729
1763
1731
1647
1553
1506
1533
1609
1698
1754
1743
1675
1581
1520
1526
1584
1677
1745
1765
1723
1637
1569
1554
1594
1677
1755
1791
1745
1664
1577
1534
1562
1632
1726
1788
1793
1731
1650
1610
1622
1676
1771
1840
1846
1799
1702
1622
1600
1635
1712
1779
1801
1762
1680
1593
1553
1575
1637
1723
1767
1759
1693
1600
1535
1553
1611
1705
1776
1785
1737
1643
1574
1553
1594
1680
1766
1793
1763
1677
1594
1559
1584
1657
1745
1796
1786
1719
1631
1584
1595
1655
1746
1813
1823
1779
1695
1629
1621
1663
1749
1837
1869
1840
1758
1671
1637
1661
1745
1861
1954
2005
2032
2063
2144
2277
2419
2524
2531
2427
2245
1998
1714
1415
1099
810
567
370
235
158
168
280
481
745
1019
1231
1344
1399
1430
1503
1632
1790
1965
2096
2145
2117
2032
1966
1954
2000
2096
2181
2215
2185
2103
2019
1989
2015
2097
2189
2239
2230
2163
2075
2020
2030
2091
2179
2245
2253
2207
2112
2037
2027
2071
2160
2243
2278
2245
2162
2080
2043
2069
2139
2225
2272
2256
2186
2096
2044
2064
2128
2226
2297
2304
2254
2160
2097
2093
2135
2227
2317
2350
2321
2245
2166
2141
2172
2247
2338
2384
2372
2309
2224
2176
2191
2252
2352
2421
2432
2389
2308
2244
2240
2293
2384
2470
2506
2480
2401
2323
2302
2331
2401
2486
2535
2513
2446
2355
2310
2318
2369
2454
2514
2511
2448
2342
2257
2231
2255
2320
2373
2372
2311
2201
2095
2031
2026
2068
2127
2141
2096
1994
1877
1808
1796
1840
1914
1961
1949
1883
1777
1700
1683
1719
1801
1871
1889
1853
1765
1682
1654
1681
1755
1839
1875
1857
1777
1681
1632
1646
1702
1795
1859
1865
1809
1715
1647
1633
1675
1765
1841
1868
1831
1743
1655
1623
1653
1728
1813
1855
1835
1759
1666
1615
1619
1681
1776
1840
1839
1781
1685
1616
1610
1648
1734
1808
1829
1781
1693
1610
1580
1600
1670
1751
1792
1763
1685
1596
1535
1535
1605
1693
1754
1751
1690
1593
1519
1510
1555
1641
1715
1732
1694
1603
1518
1483
1511
1588
1669
1710
1680
1601
1499
1447
1456
1506
1600
1657
1650
1586
1481
1408
1395
1439
1521
1601
1616
1579
1483
1395
1367
1395
1469
1553
1590
1565
1481
1390
1334
1344
1399
1487
1535
1535
1473
1375
1300
1292
1334
1419
1488
1504
1455
1360
1271
1247
1274
1348
1437
1483
1463
1392
1296
1249
1264
1321
1407
1463
1455
1388
1281
1213
1200
1245
1329
1402
1423
1381
1294
1216
1193
1229
1307
1392
1427
1405
1325
1221
1159
1153
1199
1274
1319
1302
1230
1115
1031
1003
1034
1101
1152
1154
1090
974
867
816
816
861
912
919
859
739
599
488
444
444
469
464
393
256
81
0
0
0
0
0
0
0
0
0
0
0
0
0
0
0
0
0
0
0
0
0
0
0
0
0
0
0
0
0
0
0
0
0
0
0
0
0
0
0
0
0
0
0
0
0
0
0
0
0
0
0
0
0
0
0
0
0
0
0
0
0
0
0
0
0
0
0
0
0
0
0
0
0
0
0
0
0
0
0
0
0
0
0
0
0
0
0
0
0
0
0
0
0
0
0
0
0
0
0
0
0
0
0
0
0
0
0
0
0
0
0
0
0
0
0
0
0
0
0
0
0
0
0
0
0
0
0
0
0
0
0
15
18
31
81
179
305
430
496
501
454
396
384
432
528
647
735
766
737
668
637
661
737
850
949
988
973
906
850
851
910
1011
1120
1178
1170
1105
1031
994
1023
1105
1210
1277
1277
1216
1114
1042
1033
1071
1147
1213
1219
1174
1079
995
973
1003
1089
1177
1222
1203
1133
1047
1007
1034
1104
1207
1277
1283
1232
1153
1107
1118
1184
1292
1379
1409
1381
1303
1239
1235
1287
1378
1479
1527
1519
1456
1378
1347
1381
1459
1571
1638
1647
1593
1507
1457
1465
1520
1622
1704
1727
1695
1613
1535
1527
1574
1669
1761
1807
1788
1716
1634
1597
1616
1682
1779
1842
1837
1774
1680
1623
1629
1685
1777
1854
1872
1836
1746
1680
1666
1707
1791
1876
1918
1895
1813
1734
1706
1734
1806
1898
1954
1949
1892
1808
1758
1770
1831
1927
2005
2023
1984
1899
1834
1814
1854
1936
2018
2059
2029
1951
1863
1829
1853
1919
2011
2069
2063
1993
1900
1835
1827
1872
1963
2030
2038
1989
1900
1824
1802
1837
1914
1998
2030
2001
1929
1851
1817
1842
1919
2009
2070
2063
1991
1899
1843
1856
1919
2017
2099
2114
2071
1984
1921
1920
1970
2071
2169
2215
2194
2112
2033
1999
2019
2087
2175
2223
2211
2140
2037
1974
1975
2023
2112
2178
2187
2134
2035
1968
1950
1986
2071
2147
2181
2154
2074
1985
1947
1968
2031
2121
2171
2160
2096
2000
1943
1949
2000
2096
2160
2173
2128
2034
1965
1949
1984
2066
2142
2169
2137
2047
1964
1923
1938
2000
2094
2130
2112
2034
1932
1863
1857
1904
1982
2032
2029
1968
1862
1789
1781
1843
1973
2131
2265
2364
2417
2426
2410
2367
2305
2225
2062
1758
1329
846
433
166
53
83
196
313
401
459
535
647
784
947
1094
1197
1243
1242
1237
1265
1329
1426
1526
1581
1558
1471
1360
1286
1274
1305
1378
1425
1415
1344
1231
1142
1111
1134
1198
1258
1270
1226
1130
1031
979
993
1054
1133
1168
1142
1067
958
891
883
930
1015
1087
1090
1040
939
861
839
877
960
1046
1078
1049
963
881
852
885
963
1071
1127
1128
1072
989
945
957
1019
1123
1200
1219
1186
1105
1050
1054
1107
1216
1314
1358
1341
1270
1200
1181
1226
1305
1411
1483
1491
1453
1383
1351
1381
1455
1565
1643
1663
1631
1556
1498
1502
1559
1660
1746
1792
1776
1711
1643
1618
1648
1722
1808
1862
1853
1786
1695
1634
1634
1680
1753
1807
1803
1739
1634
1555
1531
1566
1639
1712
1728
1686
1600
1515
1483
1507
1585
1675
1727
1712
1651
1570
1520
1535
1604
1699
1767
1777
1733
1650
1595
1595
1647
1737
1823
1857
1835
1761
1695
1675
1707
1783
1879
1932
1922
1858
1777
1735
1753
1817
1917
1986
2000
1962
1875
1819
1819
1869
1963
2046
2087
2064
1990
1919
1901
1931
2005
2103
2159
2149
2093
2005
1978
1986
2059
2153
2223
2230
2181
2095
2025
2021
2077
2167
2254
2292
2274
2195
2126
2098
2128
2206
2294
2343
2334
2272
2191
2147
2163
2227
2322
2388
2398
2351
2261
2198
2193
2240
2325
2410
2439
2412
2333
2256
2239
2271
2350
2438
2487
2474
2405
2320
2277
2291
2352
2448
2514
2525
2475
2384
2320
2317
2359
2447
2526
2557
2525
2447
2373
2351
2384
2457
2544
2596
2583
2513
2426
2379
2387
2447
2533
2603
2608
2546
2456
2395
2391
2442
2533
2624
2667
2645
2559
2497
2477
2502
2577
2658
2698
2677
2608
2510
2453
2453
2506
2593
2654
2653
2599
2496
2423
2415
2457
2544
2621
2645
2609
2519
2439
2416
2443
2513
2606
2646
2624
2550
2458
2413
2422
2480
2559
2638
2641
2593
2500
2434
2430
2471
2555
2639
2663
2625
2538
2454
2423
2449
2525
2619
2661
2643
2559
2481
2437
2448
2503
2597
2662
2670
2614
2514
2448
2438
2493
2610
2732
2828
2895
2927
2978
3053
3134
3184
3199
3137
3002
2770
2451
2110
1772
1491
1328
1238
1200
1207
1232
1311
1469
1670
1891
2082
2207
2285
2307
2334
2402
2497
2627
2749
2809
2800
2731
2641
2597
2607
2661
2752
2815
2819
2768
2677
2621
2610
2653
2736
2807
2832
2793
2703
2626
2598
2624
2688
2768
2803
2787
2711
2624
2559
2582
2640
2726
2782
2779
2719
2629
2559
2553
2599
2677
2748
2758
2719
2640
2559
2533
2559
2639
2724
2766
2742
2670
2577
2525
2542
2603
2688
2743
2736
2683
2590
2523
2519
2559
2662
2736
2757
2721
2635
2555
2535
2559
2645
2737
2769
2746
2673
2589
2543
2558
2628
2722
2779
2779
2719
2624
2557
2554
2605
2687
2755
2769
2726
2625
2542
2512
2538
2608
2678
2706
2679
2595
2485
2427
2419
2454
2517
2554
2521
2435
2314
2223
2193
2212
2273
2320
2311
2253
2147
2047
2000
2014
2077
2145
2171
2131
2042
1941
1887
1891
1942
2025
2079
2073
2010
1915
1855
1849
1898
1981
2059
2075
2029
1938
1862
1843
1875
1955
2037
2075
2045
1969
1885
1843
1859
1920
2006
2064
2060
1991
1898
1837
1835
1877
1967
2032
2045
2001
1919
1845
1824
1857
1935
2015
2047
2018
1941
1857
1811
1830
1887
1978
2031
2028
1968
1872
1811
1808
1850
1934
1999
2011
1968
1882
1803
1779
1815
1890
1968
2003
1981
1904
1814
1771
1789
1847
1934
1984
1979
1918
1825
1770
1770
1819
1905
1973
1989
1943
1857
1783
1762
1796
1871
1952
1983
1955
1879
1793
1754
1772
1837
1926
1981
1977
1918
1823
1763
1767
1805
1893
1962
1975
1934
1846
1776
1754
1787
1866
1950
1984
1962
1886
1803
1768
1781
1843
1929
1978
1969
1909
1814
1753
1751
1797
1881
1946
1963
1921
1841
1781
1776
1824
1914
2002
2042
2017
1946
1862
1819
1831
1890
1968
2006
1997
1929
1833
1766
1759
1801
1883
1949
1961
1911
1828
1754
1737
1772
1845
1929
1965
1936
1857
1772
1728
1743
1801
1888
1937
1933
1871
1781
1721
1721
1773
1861
1930
1940
1903
1810
1741
1722
1755
1833
1914
1946
1919
1840
1750
1711
1726
1792
1885
1936
1934
1872
1777
1724
1722
1775
1861
1926
1931
1882
1803
1757
1787
1894
2077
2284
2457
2552
2543
2441
2319
2219
2159
2085
1901
1572
1119
656
292
99
71
194
371
545
677
768
854
976
1136
1340
1552
1707
1787
1797
1778
1790
1839
1920
2017
2080
2075
2011
1921
1870
1872
1920
2006
2085
2099
2062
1968
1902
1886
1924
2000
2093
2119
2096
2013
1931
1897
1915
1971
2059
2107
2102
2035
1950
1897
1895
1943
2031
2099
2113
2068
1978
1906
1889
1925
2001
2090
2115
2090
2003
1923
1894
1918
1984
2077
2128
2117
2058
1967
1914
1920
1969
2066
2131
2149
2105
2011
1939
1928
1965
2046
2131
2167
2148
2075
1995
1967
1993
2073
2165
2224
2218
2160
2074
2020
2029
2083
2176
2242
2255
2207
2115
2039
2027
2062
2138
2213
2240
2207
2125
2032
1987
1998
2047
2121
2149
2123
2033
1922
1843
1822
1845
1901
1932
1905
1826
1707
1607
1569
1581
1633
1692
1703
1654
1553
1451
1395
1411
1467
1535
1590
1563
1488
1397
1343
1344
1399
1487
1553
1559
1503
1408
1341
1327
1361
1444
1520
1553
1520
1431
1344
1310
1329
1399
1488
1535
1521
1456
1362
1305
1305
1355
1444
1511
1522
1473
1390
1318
1305
1343
1424
1500
1526
1493
1406
1330
1297
1319
1387
1471
1520
1505
1440
1354
1302
1310
1360
1449
1515
1521
1470
1377
1309
1294
1332
1418
1498
1524
1492
1413
1328
1291
1314
1387
1472
1520
1513
1445
1351
1299
1308
1360
1451
1517
1520
1472
1380
1315
1296
1337
1415
1494
1522
1488
1408
1322
1286
1316
1392
1486
1521
1522
1455
1361
1307
1315
1367
1462
1530
1535
1485
1393
1328
1325
1363
1452
1527
1561
1523
1441
1357
1321
1344
1419
1509
1562
1535
1475
1382
1330
1344
1399
1490
1559
1569
1519
1427
1363
1356
1397
1485
1568
1600
1568
1484
1407
1381
1411
1487
1582
1627
1617
1558
1472
1429
1446
1507
1603
1667
1677
1623
1529
1462
1456
1490
1579
1650
1681
1650
1579
1505
1493
1535
1629
1728
1779
1766
1695
1603
1553
1561
1611
1695
1754
1751
1692
1597
1520
1509
1552
1635
1709
1730
1696
1616
1535
1511
1535
1619
1707
1747
1735
1670
1584
1532
1535
1605
1707
1770
1774
1718
1629
1562
1558
1606
1690
1765
1791
1757
1672
1596
1570
1605
1681
1775
1819
1804
1738
1654
1613
1630
1687
1778
1840
1849
1802
1714
1655
1647
1685
1774
1857
1905
1910
1891
1904
1989
2164
2388
2603
2703
2654
2493
2285
2099
1911
1695
1419
1092
748
443
224
147
223
401
656
912
1109
1223
1255
1276
1346
1478
1658
1842
1973
2023
2000
1942
1919
1936
1998
2098
2163
2175
2128
2039
1977
1975
2021
2114
2192
2224
2192
2112
2030
2000
2028
2106
2192
2243
2227
2157
2064
2011
2021
2081
2175
2238
2238
2195
2110
2045
2042
2094
2181
2262
2293
2256
2171
2094
2064
2096
2175
2266
2318
2306
2240
2160
2125
2141
2202
2294
2357
2359
2309
2226
2165
2159
2206
2295
2384
2416
2378
2294
2221
2193
2224
2306
2393
2442
2431
2368
2290
2257
2279
2346
2442
2508
2515
2465
2379
2320
2312
2368
2459
2539
2559
2527
2445
2369
2350
2383
2459
2545
2589
2559
2480
2385
2331
2331
2374
2453
2501
2483
2410
2295
2206
2173
2185
2240
2289
2288
2224
2118
2019
1974
1986
2039
2110
2128
2096
2002
1905
1852
1861
1914
1993
2041
2031
1969
1873
1813
1814
1859
1947
2021
2039
2000
1917
1840
1814
1845
1919
2000
2042
2023
1953
1867
1823
1840
1899
1986
2046
2045
1987
1903
1840
1837
1875
1963
2035
2064
2027
1939
1861
1839
1866
1935
2022
2067
2055
1984
1902
1856
1871
1928
2015
2071
2068
2010
1919
1859
1858
1904
1986
2064
2082
2038
1952
1877
1856
1886
1965
2045
2091
2065
1987
1895
1856
1870
1926
2017
2079
2078
2015
1920
1859
1857
1904
1989
2064
2077
2032
1943
1871
1847
1882
1956
2041
2089
2067
1989
1907
1867
1879
1943
2035
2100
2105
2042
1943
1877
1872
1919
2010
2093
2112
2073
1976
1902
1872
1906
1985
2074
2115
2096
2017
1927
1878
1895
1962
2058
2114
2112
2054
1951
1893
1894
1947
2033
2112
2131
2095
2000
1921
1901
1933
2010
2098
2130
2103
2015
1923
1878
1892
1955
2058
2121
2128
2083
1997
1939
1936
1983
2067
2138
2160
2121
2030
1952
1930
1955
2026
2099
2127
2096
2011
1921
1884
1902
1966
2055
2111
2111
2047
1957
1900
1895
1937
2020
2096
2107
2063
1974
1899
1882
1911
1986
2077
2118
2097
2019
1939
1904
1923
1984
2071
2125
2120
2061
1966
1907
1908
1958
2044
2117
2128
2086
1987
1916
1900
1933
2015
2106
2146
2123
2042
1951
1911
1933
2009
2128
2235
2301
2343
2381
2459
2624
2796
2919
2977
2883
2673
2385
2036
1669
1325
1063
884
769
704
681
707
816
990
1213
1440
1612
1695
1699
1679
1702
1789
1921
2094
2224
2288
2278
2209
2145
2138
2180
2263
2353
2386
2367
2291
2209
2175
2197
2265
2352
2405
2398
2339
2250
2193
2197
2252
2338
2411
2425
2383
2298
2225
2206
2242
2319
2400
2434
2411
2331
2246
2214
2234
2299
2384
2438
2433
2374
2286
2229
2231
2278
2368
2429
2437
2394
2301
2227
2215
2251
2329
2409
2448
2428
2359
2288
2270
2304
2385
2490
2550
2556
2501
2419
2369
2375
2426
2516
2591
2610
2559
2481
2421
2413
2434
2542
2634
2670
2642
2559
2480
2445
2465
2526
2623
2677
2667
2603
2505
2448
2449
2496
2579
2641
2647
2595
2489
2410
2378
2398
2455
2512
2525
2470
2365
2253
2187
2181
2224
2291
2320
2288
2206
2098
2023
2009
2043
2123
2176
2176
2126
2030
1951
1929
1965
2033
2112
2139
2112
2030
1942
1905
1920
1991
2086
2139
2128
2064
1971
1915
1919
1968
2061
2128
2141
2097
2005
1937
1929
1968
2054
2128
2160
2127
2043
1965
1929
1951
2014
2110
2160
2147
2087
1993
1936
1940
1995
2085
2146
2154
2107
2016
1943
1935
1968
2058
2140
2166
2131
2054
1952
1935
1959
2025
2122
2175
2163
2103
2002
1947
1951
1999
2091
2150
2160
2110
2012
1941
1927
1962
2047
2128
2156
2127
2039
1963
1929
1949
2016
2107
2155
2141
2076
1979
1923
1924
1975
2067
2128
2131
2086
1994
1926
1914
1950
2031
2112
2140
2111
2026
1938
1904
1922
1990
2087
2134
2126
2060
1966
1913
1918
1968
2060
2128
2133
2090
1993
1925
1912
1949
2031
2112
2137
2105
2023
1943
1911
1931
2000
2096
2144
2129
2061
1971
1911
1922
1971
2058
2117
2125
2074
1985
1921
1919
1967
2064
2158
2192
2164
2085
1999
1968
1983
2055
2139
2186
2170
2096
1994
1935
1933
1971
2057
2109
2106
2045
1954
1885
1876
1917
1999
2079
2100
2066
1982
1902
1866
1886
1955
2039
2094
2079
2006
1911
1862
1870
1923
2006
2077
2084
2032
1939
1877
1867
1910
1990
2069
2096
2064
1984
1904
1877
1904
1968
2065
2113
2098
2027
1937
1882
1889
1939
2026
2091
2088
2027
1919
1882
1907
2001
2177
2363
2515
2614
2619
2558
2489
2433
2401
2361
2219
1934
1522
1088
750
571
544
651
806
944
1039
1090
1155
1263
1399
1584
1762
1887
1949
1943
1922
1937
1994
2089
2182
2237
2225
2160
2070
2018
2031
2093
2178
2245
2254
2209
2119
2054
2046
2094
2176
2249
2272
2237
2157
2078
2041
2074
2147
2230
2273
2258
2192
2101
2045
2061
2116
2205
2267
2272
2224
2134
2073
2064
2109
2191
2266
2294
2262
2183
2105
2071
2096
2163
2251
2297
2283
2218
2128
2087
2097
2155
2241
2304
2308
2256
2173
2111
2103
2146
2233
2314
2347
2320
2242
2167
2141
2173
2245
2336
2369
2372
2310
2233
2190
2204
2261
2349
2409
2414
2363
2272
2207
2197
2242
2327
2405
2422
2382
2292
2209
2175
2192
2256
2331
2361
2331
2251
2147
2079
2063
2094
2154
2191
2166
2096
1978
1890
1858
1875
1936
1988
1994
1941
1839
1741
1699
1714
1777
1858
1899
1875
1806
1712
1661
1666
1719
1807
1858
1857
1802
1714
1648
1641
1680
1770
1843
1867
1826
1744
1666
1639
1663
1735
1821
1866
1854
1791
1706
1663
1678
1731
1818
1874
1877
1827
1742
1677
1669
1711
1790
1862
1885
1851
1770
1693
1665
1693
1760
1843
1881
1860
1791
1699
1650
1665
1718
1807
1868
1871
1822
1731
1666
1661
1697
1782
1857
1879
1843
1757
1680
1660
1694
1763
1847
1886
1865
1792
1709
1664
1679
1737
1829
1890
1889
1835
1744
1680
1670
1712
1793
1871
1894
1856
1769
1693
1667
1694
1761
1842
1879
1863
1792
1712
1664
1674
1735
1823
1879
1881
1825
1731
1669
1664
1712
1797
1871
1891
1853
1769
1689
1665
1699
1771
1855
1893
1872
1807
1721
1680
1695
1754
1840
1895
1893
1840
1745
1683
1680
1722
1802
1871
1887
1847
1763
1686
1669
1700
1777
1865
1911
1891
1823
1738
1695
1709
1763
1846
1904
1903
1843
1744
1679
1678
1723
1814
1899
1925
1905
1835
1771
1753
1787
1871
1939
1977
1951
1875
1780
1733
1743
1793
1873
1926
1918
1856
1761
1695
1683
1729
1808
1873
1893
1854
1771
1694
1669
1705
1777
1859
1895
1872
1798
1711
1665
1680
1741
1827
1889
1886
1833
1744
1683
1681
1726
1811
1882
1902
1861
1777
1709
1686
1721
1795
1879
1919
1897
1827
1744
1706
1721
1779
1867
1925
1920
1862
1771
1711
1711
1776
1903
2027
2133
2199
2242
2294
2359
2411
2433
2419
2350
2207
1957
1621
1251
911
652
510
448
435
455
491
586
749
955
1188
1380
1517
1597
1623
1655
1723
1827
1952
2068
2126
2112
2043
1965
1925
1942
2006
2100
2159
2160
2112
2022
1963
1962
2007
2100
2173
2191
2155
2071
1994
1969
2000
2080
2160
2199
2178
2109
2022
1983
2002
2067
2158
2211
2206
2151
2064
1999
1995
2039
2131
2203
2222
2181
2096
2021
2003
2043
2124
2213
2249
2231
2161
2066
2039
2065
2128
2219
2262
2263
2208
2120
2064
2064
2115
2204
2280
2303
2263
2186
2118
2106
2143
2222
2303
2339
2320
2255
2177
2146
2173
2244
2337
2398
2396
2339
2251
2193
2194
2240
2326
2395
2411
2365
2272
2195
2177
2202
2275
2348
2375
2343
2257
2160
2103
2106
2144
2207
2237
2202
2115
1996
1908
1891
1904
1966
2011
2003
1940
1834
1743
1710
1724
1786
1854
1875
1843
1761
1665
1620
1634
1693
1779
1831
1822
1763
1670
1616
1622
1675
1754
1822
1831
1785
1698
1625
1606
1639
1717
1800
1839
1811
1741
1658
1620
1643
1698
1785
1836
1831
1770
1685
1629
1645
1701
1790
1856
1869
1825
1735
1664
1645
1678
1754
1834
1869
1846
1776
1694
1657
1675
1741
1827
1878
1872
1814
1728
1675
1674
1722
1808
1873
1887
1840
1756
1685
1670
1709
1788
1862
1893
1868
1793
1712
1678
1694
1754
1840
1889
1878
1819
1731
1677
1678
1725
1808
1873
1883
1839
1745
1679
1664
1702
1782
1866
1899
1872
1795
1711
1675
1699
1764
1850
1897
1887
1834
1744
1695
1698
1745
1834
1898
1904
1859
1773
1701
1687
1723
1803
1877
1909
1889
1814
1734
1702
1725
1788
1871
1923
1913
1856
1764
1711
1712
1766
1852
1915
1922
1873
1792
1726
1715
1751
1831
1907
1936
1904
1827
1741
1709
1730
1793
1876
1927
1918
1856
1770
1719
1728
1779
1871
1936
1945
1904
1817
1747
1730
1764
1839
1914
1939
1910
1833
1747
1712
1734
1804
1901
1957
1968
1920
1842
1797
1807
1856
1938
2000
2005
1955
1861
1785
1767
1794
1863
1934
1957
1922
1840
1749
1713
1733
1797
1887
1930
1906
1845
1756
1704
1711
1760
1851
1922
1934
1888
1802
1734
1721
1761
1839
1915
1936
1904
1825
1744
1712
1730
1795
1875
1925
1910
1853
1764
1713
1718
1775
1866
1935
1945
1900
1806
1738
1727
1756
1846
1929
1958
1923
1840
1757
1735
1787
1904
2062
2205
2315
2397
2441
2470
2475
2446
2403
2320
2162
1879
1483
1040
641
354
221
208
259
336
418
527
688
886
1109
1330
1514
1636
1697
1726
1769
1847
1953
2082
2167
2189
2148
2064
1991
1984
2027
2117
2195
2226
2199
2123
2035
2007
2039
2111
2193
2241
2237
2176
2093
2043
2047
2110
2202
2269
2282
2231
2142
2073
2064
2101
2178
2254
2287
2256
2187
2111
2079
2099
2167
2254
2298
2283
2220
2130
2086
2097
2155
2242
2305
2310
2261
2176
2114
2109
2149
2235
2313
2342
2319
2238
2163
2138
2171
2239
2327
2380
2373
2317
2233
2189
2201
2269
2350
2415
2425
2383
2301
2238
2229
2275
2359
2443
2477
2448
2377
2304
2281
2307
2373
2455
2499
2484
2417
2329
2270
2266
2303
2381
2435
2438
2378
2277
2196
2169
2182
2239
2287
2277
2210
2095
1974
1915
1911
1950
2000
2015
1981
1894
1785
1709
1701
1744
1826
1875
1862
1796
1710
1648
1635
1669
1744
1809
1829
1793
1712
1630
1597
1617
1686
1775
1825
1811
1746
1656
1607
1620
1679
1764
1819
1821
1772
1681
1616
1616
1661
1744
1824
1854
1821
1743
1664
1638
1662
1738
1819
1869
1856
1789
1708
1664
1680
1736
1827
1895
1904
1855
1765
1703
1695
1734
1818
1894
1921
1883
1803
1723
1695
1719
1785
1866
1904
1885
1815
1722
1680
1686
1740
1821
1879
1885
1834
1741
1674
1664
1705
1783
1855
1875
1842
1760
1683
1653
1679
1748
1830
1872
1851
1783
1698
1651
1662
1723
1808
1871
1872
1821
1727
1660
1651
1687
1773
1843
1866
1839
1762
1683
1663
1690
1765
1847
1890
1872
1806
1717
1676
1686
1744
1835
1894
1899
1846
1758
1691
1681
1728
1813
1889
1914
1886
1805
1728
1705
1733
1807
1898
1943
1925
1856
1769
1725
1735
1792
1878
1936
1936
1879
1787
1725
1723
1779
1873
1965
2000
1977
1903
1829
1805
1834
1904
1984
2018
1999
1920
1824
1771
1777
1834
1911
1963
1954
1896
1808
1743
1739
1779
1861
1930
1954
1919
1839
1762
1739
1767
1837
1917
1957
1937
1869
1782
1740
1755
1810
1899
1957
1958
1905
1813
1751
1747
1791
1879
1959
1983
1950
1868
1791
1771
1801
1871
1947
1983
1964
1893
1808
1764
1776
1837
1921
1983
1983
1928
1838
1782
1798
1877
2018
2181
2313
2416
2487
2549
2605
2624
2613
2544
2413
2159
1775
1305
870
560
384
361
426
526
622
701
814
971
1164
1360
1521
1634
1694
1711
1733
1794
1897
2019
2137
2199
2196
2135
2061
2016
2032
2097
2187
2243
2243
2193
2112
2058
2053
2098
2185
2259
2283
2246
2167
2095
2069
2101
2167
2249
2287
2267
2195
2111
2065
2075
2133
2224
2286
2286
2236
2146
2081
2080
2128
2219
2292
2317
2279
2195
2119
2102
2129
2207
2288
2340
2317
2254
2171
2130
2149
2211
2304
2367
2368
2324
2233
2175
2179
2229
2319
2384
2413
2382
2304
2241
2231
2271
2351
2434
2477
2454
2384
2306
2271
2294
2358
2449
2512
2513
2465
2379
2320
2315
2358
2441
2510
2529
2486
2395
2319
2288
2315
2379
2450
2475
2438
2352
2243
2183
2175
2208
2268
2298
2266
2189
2074
1983
1953
1973
2032
2083
2082
2019
1920
1831
1793
1813
1872
1947
1974
1939
1862
1766
1714
1725
1783
1871
1926
1925
1870
1779
1721
1719
1770
1853
1918
1931
1885
1797
1721
1699
1729
1806
1886
1922
1904
1835
1744
1709
1723
1782
1871
1925
1922
1869
1778
1726
1725
1776
1865
1935
1947
1905
1818
1744
1729
1765
1842
1923
1963
1939
1872
1790
1746
1765
1830
1919
1978
1974
1914
1823
1761
1758
1798
1879
1947
1963
1926
1843
1775
1756
1790
1859
1936
1973
1949
1874
1791
1751
1776
1837
1926
1983
1980
1922
1835
1776
1770
1810
1892
1954
1969
1931
1840
1774
1749
1782
1858
1937
1980
1956
1881
1798
1761
1779
1843
1932
1984
1982
1925
1834
1776
1775
1823
1910
1980
1998
1959
1872
1799
1782
1817
1900
1983
2022
2001
1925
1839
1794
1810
1872
1958
2013
2004
1949
1857
1801
1803
1847
1936
2006
2032
2000
1923
1865
1859
1901
1980
2064
2096
2073
1990
1904
1856
1869
1922
2001
2058
2043
1981
1884
1818
1809
1850
1933
2001
2010
1966
1873
1798
1775
1805
1875
1956
1990
1968
1895
1807
1767
1782
1846
1931
1984
1979
1922
1831
1774
1773
1815
1904
1973
1989
1951
1863
1794
1776
1810
1889
1968
1997
1974
1902
1820
1783
1804
1869
1959
2002
1999
1936
1846
1793
1797
1847
1933
2000
2029
2007
1965
1957
2027
2175
2386
2625
2791
2823
2727
2539
2347
2157
1953
1702
1375
1014
690
432
320
359
522
754
989
1167
1264
1295
1307
1351
1449
1610
1777
1903
1957
1946
1915
1915
1954
2032
2131
2193
2193
2141
2059
2001
2000
2064
2154
2222
2228
2185
2096
2025
2006
2044
2128
2207
2241
2218
2134
2047
2011
2031
2103
2192
2251
2245
2180
2093
2034
2034
2091
2182
2253
2267
2224
2134
2066
2055
2091
2166
2242
2270
2242
2165
2085
2047
2074
2139
2225
2273
2265
2209
2125
2068
2074
2128
2222
2288
2303
2262
2179
2113
2105
2144
2228
2307
2343
2320
2247
2172
2146
2176
2249
2342
2398
2393
2339
2255
2205
2211
2266
2355
2423
2433
2387
2297
2226
2213
2249
2321
2398
2423
2387
2305
2221
2176
2189
2239
2307
2341
2313
2229
2119
2045
2025
2046
2110
2145
2128
2055
1937
1851
1815
1833
1895
1958
1971
1931
1838
1743
1696
1713
1775
1859
1904
1890
1830
1743
1682
1685
1733
1821
1885
1898
1854
1767
1699
1683
1727
1803
1879
1911
1883
1799
1712
1681
1706
1776
1861
1911
1904
1842
1756
1710
1715
1775
1860
1931
1941
1899
1809
1741
1730
1770
1854
1936
1967
1937
1861
1778
1745
1771
1840
1920
1974
1967
1907
1823
1775
1781
1839
1929
1990
2000
1953
1867
1799
1790
1830
1911
1989
2017
1986
1908
1826
1792
1813
1882
1969
2016
2005
1943
1854
1805
1808
1863
1955
2018
2023
1975
1887
1818
1813
1851
1936
2015
2042
2009
1923
1839
1802
1819
1887
1971
2019
2007
1945
1856
1806
1812
1870
1954
2017
2025
1979
1886
1823
1814
1855
1936
2010
2039
2010
1929
1851
1823
1842
1914
2000
2047
2032
1968
1878
1829
1840
1891
1979
2039
2053
2002
1921
1867
1872
1930
2022
2112
2143
2110
2027
1939
1911
1935
2000
2086
2127
2105
2029
1933
1874
1881
1929
2007
2073
2079
2019
1933
1862
1854
1893
1977
2059
2081
2043
1967
1883
1851
1873
1949
2039
2094
2077
2000
1911
1861
1870
1922
2007
2071
2076
2018
1929
1863
1856
1901
1984
2064
2095
2070
1987
1916
1891
1919
1987
2075
2119
2101
2029
1939
1893
1904
1958
2047
2107
2109
2064
1995
1970
2032
2169
2367
2577
2720
2753
2663
2503
2370
2281
2211
2092
1851
1488
1073
706
471
407
492
687
891
1070
1181
1234
1296
1403
1566
1773
1957
2082
2127
2103
2065
2064
2107
2182
2279
2326
2315
2254
2170
2123
2133
2191
2283
2346
2350
2303
2217
2159
2151
2192
2276
2352
2371
2341
2256
2181
2160
2190
2261
2353
2403
2386
2320
2234
2183
2194
2252
2346
2407
2411
2359
2271
2210
2207
2247
2331
2405
2429
2394
2309
2229
2203
2229
2303
2394
2442
2429
2367
2282
2237
2254
2306
2395
2458
2461
2413
2322
2266
2266
2314
2401
2482
2509
2478
2397
2320
2297
2327
2405
2505
2547
2537
2475
2384
2345
2363
2430
2521
2592
2598
2543
2455
2389
2384
2427
2505
2581
2604
2558
2469
2383
2344
2365
2423
2494
2525
2491
2406
2291
2225
2210
2240
2299
2329
2304
2221
2102
2013
1974
2001
2073
2131
2137
2089
1985
1895
1856
1874
1939
2018
2055
2026
1949
1856
1808
1822
1877
1964
2017
2013
1957
1869
1806
1802
1846
1926
1993
2014
1975
1893
1818
1795
1831
1904
1989
2032
2019
1949
1859
1810
1826
1887
1975
2033
2032
1979
1887
1826
1825
1871
1957
2029
2047
2007
1925
1849
1822
1855
1925
2006
2045
2019
1943
1859
1813
1830
1887
1975
2032
2031
1975
1885
1821
1819
1867
1957
2029
2047
2006
1919
1839
1811
1840
1913
1991
2029
2003
1931
1845
1804
1818
1879
1969
2027
2021
1963
1869
1806
1803
1847
1936
2001
2018
1979
1903
1818
1791
1822
1894
1979
2010
1990
1915
1826
1779
1796
1859
1950
2007
2005
1946
1853
1791
1791
1839
1923
1998
2019
1983
1899
1824
1802
1834
1909
1993
2030
2013
1940
1857
1818
1835
1894
1982
2033
2032
1970
1875
1813
1808
1855
1937
2014
2037
2009
1936
1873
1862
1901
1975
2064
2099
2075
1999
1910
1867
1872
1926
2000
2047
2032
1968
1867
1801
1795
1836
1916
1984
1998
1959
1871
1795
1775
1806
1876
1958
1994
1968
1893
1803
1758
1776
1835
1920
1971
1968
1907
1814
1753
1751
1798
1887
1957
1976
1936
1850
1775
1755
1789
1861
1943
1981
1962
1890
1805
1772
1790
1855
1936
1989
1986
1923
1839
1777
1779
1826
1910
1984
2031
2034
2019
2057
2165
2339
2539
2689
2707
2605
2393
2167
1955
1734
1472
1181
848
535
278
112
82
187
387
663
927
1119
1221
1264
1315
1425
1595
1790
1968
2079
2101
2062
1988
1967
1987
2060
2150
2205
2192
2148
2056
1998
2000
2056
2144
2215
2231
2191
2106
2031
2009
2043
2128
2209
2244
2221
2146
2061
2015
2033
2101
2191
2249
2243
2186
2095
2033
2033
2091
2179
2249
2260
2219
2129
2058
2034
2076
2157
2239
2273
2249
2171
2093
2055
2073
2138
2224
2282
2278
2215
2128
2074
2083
2133
2228
2304
2320
2287
2205
2141
2133
2177
2259
2347
2384
2366
2295
2221
2191
2220
2288
2383
2443
2441
2383
2298
2242
2249
2301
2386
2454
2466
2420
2333
2259
2242
2274
2348
2419
2448
2414
2322
2224
2169
2168
2217
2279
2305
2273
2182
2065
1973
1941
1963
2015
2058
2034
1965
1846
1749
1714
1734
1798
1863
1879
1838
1743
1639
1591
1601
1663
1744
1793
1783
1715
1616
1557
1562
1609
1694
1763
1775
1727
1641
1567
1554
1595
1680
1761
1794
1773
1693
1614
1575
1599
1665
1755
1808
1801
1738
1648
1595
1600
1653
1744
1810
1821
1775
1681
1613
1600
1633
1712
1791
1823
1792
1715
1635
1602
1629
1699
1790
1840
1828
1763
1675
1622
1629
1691
1782
1851
1861
1809
1717
1649
1638
1679
1761
1840
1872
1840
1757
1671
1633
1655
1723
1805
1855
1840
1775
1681
1627
1639
1695
1787
1850
1853
1803
1709
1636
1625
1667
1754
1838
1869
1840
1761
1680
1643
1666
1730
1817
1866
1856
1792
1705
1651
1662
1719
1805
1879
1886
1840
1744
1679
1666
1707
1791
1869
1898
1866
1786
1704
1669
1693
1758
1846
1900
1887
1823
1728
1670
1674
1727
1821
1902
1918
1888
1809
1764
1758
1808
1891
1968
1993
1958
1871
1778
1742
1757
1822
1904
1948
1924
1851
1747
1690
1690
1743
1830
1896
1906
1861
1770
1703
1691
1729
1811
1887
1914
1881
1798
1713
1681
1710
1776
1859
1904
1889
1824
1732
1680
1685
1744
1839
1904
1915
1865
1777
1712
1706
1747
1831
1906
1936
1907
1826
1744
1712
1742
1812
1903
1950
1936
1872
1783
1735
1744
1803
1904
1999
2058
2080
2094
2156
2298
2481
2657
2743
2695
2538
2311
2035
1744
1423
1091
794
539
336
208
166
234
400
641
918
1159
1307
1366
1386
1426
1535
1697
1877
2036
2128
2129
2066
1997
1968
1998
2070
2159
2202
2186
2122
2032
1986
1999
2061
2148
2210
2217
2169
2080
2006
2000
2045
2130
2217
2243
2213
2133
2047
2015
2039
2114
2201
2241
2224
2157
2064
2010
2017
2081
2177
2241
2252
2207
2121
2061
2047
2096
2177
2253
2274
2240
2160
2083
2057
2087
2160
2251
2297
2281
2214
2122
2076
2091
2150
2242
2311
2317
2267
2177
2117
2113
2163
2256
2345
2373
2345
2266
2192
2164
2193
2269
2361
2414
2402
2335
2251
2209
2218
2273
2359
2419
2420
2368
2278
2213
2202
2240
2320
2391
2409
2365
2266
2174
2126
2128
2178
2239
2256
2215
2122
1999
1923
1907
1937
1999
2030
2000
1921
1808
1723
1698
1725
1793
1856
1865
1812
1722
1635
1601
1625
1696
1778
1821
1797
1725
1632
1584
1595
1648
1742
1805
1803
1748
1653
1587
1581
1621
1712
1791
1808
1770
1680
1600
1577
1605
1679
1763
1806
1790
1719
1631
1590
1605
1670
1766
1826
1826
1760
1677
1608
1600
1647
1733
1812
1838
1801
1714
1636
1613
1638
1712
1799
1840
1814
1742
1655
1611
1625
1687
1776
1837
1839
1782
1695
1633
1628
1673
1763
1839
1858
1822
1738
1655
1631
1659
1734
1820
1858
1840
1774
1685
1642
1653
1712
1802
1859
1857
1798
1706
1643
1637
1683
1771
1842
1863
1827
1742
1663
1638
1671
1748
1840
1883
1870
1797
1708
1663
1677
1731
1838
1879
1883
1829
1733
1669
1664
1711
1799
1878
1910
1881
1809
1750
1743
1779
1862
1947
1984
1967
1886
1791
1744
1746
1799
1876
1927
1915
1849
1745
1673
1663
1707
1792
1866
1883
1844
1758
1679
1657
1685
1760
1842
1885
1865
1792
1710
1664
1680
1739
1829
1885
1884
1824
1728
1663
1661
1701
1788
1858
1875
1840
1755
1680
1662
1695
1775
1857
1897
1873
1805
1719
1675
1694
1754
1845
1902
1898
1840
1744
1680
1676
1719
1803
1879
1915
1905
1878
1885
1975
2155
2387
2626
2759
2743
2595
2366
2148
1921
1664
1360
1018
683
389
185
119
204
389
653
897
1091
1198
1219
1227
1277
1397
1579
1761
1889
1942
1924
1872
1855
1883
1951
2045
2107
2107
2047
1961
1905
1905
1959
2053
2128
2143
2102
2006
1936
1918
1954
2032
2122
2160
2134
2064
1975
1935
1953
2016
2114
2166
2163
2114
2023
1967
1969
2022
2115
2191
2209
2166
2086
2002
1985
2020
2102
2184
2219
2199
2128
2037
2000
2021
2092
2185
2243
2240
2185
2097
2039
2047
2107
2194
2271
2288
2251
2168
2097
2087
2128
2207
2290
2326
2304
2238
2160
2128
2160
2223
2329
2380
2379
2320
2230
2175
2193
2227
2325
2397
2416
2383
2294
2222
2195
2227
2301
2378
2403
2371
2285
2187
2133
2137
2180
2244
2275
2241
2158
2032
1947
1921
1941
2007
2062
2058
1984
1877
1777
1738
1754
1811
1879
1902
1857
1767
1669
1617
1633
1691
1777
1827
1819
1757
1658
1600
1595
1638
1728
1799
1809
1764
1672
1600
1579
1616
1695
1779
1821
1794
1719
1635
1600
1620
1687
1779
1837
1830
1767
1675
1616
1619
1674
1765
1839
1855
1810
1723
1648
1630
1664
1739
1825
1862
1839
1766
1684
1648
1666
1737
1826
1875
1867
1805
1712
1658
1664
1718
1808
1878
1894
1854
1766
1695
1680
1718
1793
1872
1904
1874
1798
1714
1680
1702
1770
1856
1903
1892
1829
1735
1680
1680
1730
1819
1890
1903
1857
1775
1702
1682
1719
1801
1878
1915
1890
1811
1731
1700
1726
1791
1882
1933
1923
1862
1776
1715
1722
1776
1862
1936
1959
1922
1847
1790
1786
1833
1915
1993
2027
1995
1915
1826
1783
1799
1858
1936
1979
1966
1894
1793
1733
1728
1776
1858
1923
1934
1887
1796
1728
1714
1758
1839
1917
1946
1917
1840
1750
1715
1737
1805
1889
1936
1923
1862
1770
1716
1721
1776
1862
1935
1945
1901
1808
1738
1723
1759
1840
1920
1952
1921
1840
1761
1730
1755
1827
1918
1968
1962
1904
1811
1758
1763
1813
1899
1966
1987
1968
1926
1931
2018
2192
2425
2663
2805
2804
2672
2473
2285
2100
1883
1616
1277
919
612
380
303
372
558
798
1023
1199
1287
1306
1315
1367
1488
1664
1837
1951
1991
1959
1920
1904
1937
2018
2114
2167
2160
2102
2013
1973
1973
2030
2127
2192
2202
2159
2068
1999
1984
2026
2110
2187
2215
2183
2105
2021
1989
2013
2091
2182
2226
2215
2147
2059
2002
2014
2071
2163
2229
2240
2193
2108
2032
2020
2064
2147
2227
2258
2227
2147
2073
2033
2065
2134
2225
2273
2261
2195
2111
2063
2071
2125
2214
2287
2294
2250
2166
2101
2095
2135
2223
2304
2337
2311
2235
2160
2133
2163
2239
2333
2386
2381
2319
2229
2185
2193
2256
2348
2415
2416
2367
2269
2199
2181
2218
2290
2362
2382
2341
2251
2157
2114
2128
2179
2245
2271
2236
2142
2023
1947
1929
1957
2018
2062
2041
1968
1857
1775
1739
1755
1819
1878
1890
1842
1753
1664
1626
1648
1712
1794
1840
1825
1754
1663
1609
1617
1674
1763
1827
1831
1777
1681
1616
1601
1638
1719
1799
1822
1787
1707
1629
1600
1626
1693
1783
1829
1810
1744
1657
1613
1624
1682
1776
1840
1840
1789
1697
1626
1619
1666
1758
1839
1862
1828
1748
1673
1647
1675
1747
1837
1883
1858
1791
1700
1651
1664
1718
1809
1872
1873
1821
1730
1664
1648
1690
1775
1853
1873
1842
1766
1683
1662
1687
1759
1844
1890
1872
1805
1715
1670
1680
1733
1821
1883
1884
1831
1738
1669
1663
1703
1786
1857
1875
1839
1751
1669
1643
1671
1747
1839
1879
1863
1795
1707
1662
1673
1730
1821
1879
1879
1827
1739
1679
1678
1717
1801
1872
1898
1858
1777
1700
1674
1703
1776
1867
1914
1904
1843
1773
1737
1759
1821
1913
1970
1969
1918
1811
1749
1742
1779
1857
1925
1938
1901
1808
1728
1705
1715
1785
1862
1903
1885
1813
1728
1683
1702
1762
1850
1909
1910
1855
1760
1695
1689
1734
1817
1890
1910
1874
1791
1712
1680
1709
1781
1867
1911
1893
1824
1733
1681
1697
1757
1851
1909
1910
1856
1763
1700
1697
1743
1835
1913
1935
1898
1814
1738
1711
1733
1799
1881
1936
1947
1932
1927
1995
2141
2335
2518
2618
2585
2441
2244
2064
1884
1677
1424
1125
809
531
315
221
270
421
656
911
1123
1247
1296
1323
1392
1520
1691
1872
2001
2062
2037
1968
1918
1917
1968
2062
2135
2158
2122
2033
1962
1936
1968
2045
2129
2176
2160
2096
2009
1969
1984
2041
2128
2183
2181
2123
2028
1968
1968
2017
2112
2182
2201
2161
2079
1996
1969
2001
2087
2167
2210
2192
2128
2032
1994
2010
2077
2165
2224
2224
2169
2081
2019
2019
2077
2163
2241
2259
2223
2139
2064
2044
2083
2166
2251
2290
2273
2205
2126
2087
2106
2174
2268
2327
2330
2278
2193
2142
2153
2199
2289
2368
2393
2354
2271
2199
2179
2219
2293
2378
2416
2397
2325
2242
2203
2219
2279
2361
2415
2398
2331
2231
2161
2150
2185
2257
2306
2297
2229
2112
2005
1959
1965
2016
2079
2091
2038
1942
1835
1776
1773
1816
1890
1936
1926
1857
1760
1691
1681
1723
1802
1866
1878
1835
1748
1675
1654
1685
1762
1843
1877
1856
1777
1685
1645
1662
1728
1815
1867
1863
1808
1718
1663
1663
1712
1803
1873
1894
1851
1759
1680
1664
1699
1777
1866
1901
1872
1794
1709
1673
1691
1754
1844
1902
1899
1840
1755
1701
1701
1749
1835
1905
1918
1875
1790
1712
1698
1729
1806
1890
1920
1895
1818
1731
1696
1715
1778
1866
1919
1912
1851
1756
1696
1698
1746
1839
1907
1922
1877
1792
1715
1697
1729
1808
1887
1919
1894
1815
1732
1695
1719
1783
1872
1922
1915
1851
1761
1706
1705
1751
1839
1907
1921
1872
1779
1703
1686
1722
1799
1883
1919
1891
1811
1728
1693
1712
1776
1862
1913
1905
1845
1755
1703
1710
1761
1847
1918
1929
1883
1793
1726
1712
1747
1834
1917
1950
1925
1854
1772
1738
1762
1837
1923
1981
1971
1910
1819
1759
1761
1808
1887
1949
1957
1910
1829
1769
1769
1821
1919
2011
2058
2027
1946
1856
1809
1822
1875
1958
2001
1986
1916
1818
1759
1761
1807
1890
1951
1957
1906
1811
1738
1715
1755
1839
1920
1951
1926
1845
1761
1725
1744
1809
1904
1955
1951
1885
1791
1730
1730
1776
1863
1935
1947
1907
1818
1746
1733
1771
1851
1933
1963
1936
1857
1776
1740
1765
1838
1925
1974
1968
1905
1814
1763
1769
1809
1891
1954
1969
1946
1899
1894
1974
2138
2352
2558
2672
2642
2485
2281
2112
1975
1830
1629
1315
930
547
238
80
96
244
480
731
929
1063
1119
1173
1283
1452
1664
1865
1991
2037
2007
1963
1945
1979
2054
2142
2193
2190
2131
2041
1994
2001
2065
2160
2225
2234
2187
2095
2020
2003
2044
2130
2215
2245
2224
2145
2063
2030
2059
2128
2219
2262
2255
2187
2096
2034
2043
2108
2192
2256
2261
2218
2131
2064
2055
2096
2176
2255
2286
2267
2183
2103
2070
2097
2167
2257
2305
2288
2242
2148
2102
2122
2171
2260
2326
2337
2295
2213
2146
2138
2187
2277
2363
2399
2375
2298
2224
2197
2235
2311
2413
2470
2463
2407
2320
2271
2286
2340
2431
2499
2509
2463
2370
2301
2288
2323
2406
2481
2507
2467
2375
2283
2238
2244
2293
2363
2386
2352
2256
2141
2064
2039
2071
2132
2167
2141
2063
1938
1847
1808
1827
1885
1942
1951
1904
1806
1709
1664
1679
1738
1811
1856
1840
1774
1681
1630
1643
1696
1787
1854
1859
1805
1710
1637
1627
1673
1755
1835
1859
1831
1749
1667
1639
1663
1731
1823
1873
1862
1792
1701
1648
1653
1712
1805
1871
1873
1825
1731
1670
1664
1709
1790
1870
1897
1863
1777
1697
1670
1695
1769
1854
1894
1875
1808
1727
1681
1701
1764
1851
1909
1909
1857
1771
1711
1709
1749
1826
1891
1910
1877
1799
1725
1696
1723
1803
1889
1931
1909
1839
1745
1699
1713
1775
1863
1926
1926
1871
1779
1714
1712
1759
1842
1917
1937
1904
1819
1739
1707
1733
1808
1894
1941
1933
1863
1777
1731
1745
1808
1901
1964
1966
1915
1825
1755
1747
1792
1873
1947
1969
1936
1859
1786
1761
1791
1862
1953
2001
1985
1922
1835
1783
1795
1854
1939
2002
2006
1957
1864
1797
1790
1834
1913
1984
2007
1971
1885
1807
1776
1805
1875
1970
2015
2000
1932
1843
1799
1810
1869
1955
2011
2007
1955
1866
1799
1799
1843
1931
2005
2034
1998
1911
1830
1799
1823
1898
1984
2030
2013
1947
1859
1815
1830
1890
1977
2034
2034
1983
1893
1828
1823
1872
1955
2038
2064
2027
1942
1863
1838
1856
1943
2027
2074
2053
1975
1886
1847
1870
1941
2047
2126
2138
2096
2005
1951
1945
1982
2064
2133
2150
2106
2005
1920
1889
1911
1978
2059
2096
2070
1993
1904
1854
1859
1915
2002
2064
2063
2001
1909
1845
1841
1887
1971
2045
2069
2027
1943
1871
1850
1881
1961
2042
2085
2064
1984
1891
1843
1856
1910
1997
2057
2057
1997
1905
1842
1840
1887
1974
2054
2071
2025
1938
1867
1843
1879
1957
2039
2090
2064
1987
1904
1874
1921
2030
2190
2339
2463
2553
2613
2653
2677
2666
2634
2550
2373
2078
1649
1183
797
551
449
486
581
678
759
838
963
1138
1323
1507
1648
1731
1770
1771
1803
1872
1978
2109
2210
2247
2221
2143
2077
2055
2090
2160
2241
2281
2257
2189
2103
2063
2079
2138
2227
2286
2279
2226
2138
2081
2077
2123
2208
2285
2303
2263
2176
2103
2079
2112
2190
2273
2308
2287
2214
2128
2093
2110
2171
2266
2320
2315
2259
2170
2109
2103
2155
2241
2320
2345
2304
2222
2145
2122
2157
2235
2320
2357
2340
2275
2190
2150
2171
2239
2328
2391
2395
2343
2257
2203
2209
2261
2354
2432
2453
2417
2334
2266
2251
2286
2370
2451
2495
2473
2398
2314
2273
2295
2354
2439
2496
2491
2432
2341
2273
2266
2307
2385
2448
2450
2398
2289
2193
2151
2160
2211
2269
2283
2237
2132
2017
1952
1940
1979
2039
2076
2043
1966
1854
1776
1757
1789
1860
1922
1926
1873
1777
1687
1662
1687
1761
1845
1879
1854
1776
1686
1645
1658
1717
1805
1856
1851
1791
1707
1645
1649
1692
1777
1840
1862
1820
1734
1664
1651
1675
1765
1847
1882
1856
1781
1701
1665
1690
1756
1843
1898
1887
1827
1741
1685
1686
1739
1823
1891
1904
1865
1776
1698
1670
1701
1776
1857
1893
1872
1797
1715
1679
1697
1763
1850
1903
1894
1833
1743
1683
1694
1747
1840
1917
1926
1882
1790
1715
1702
1739
1821
1904
1937
1915
1839
1751
1709
1727
1794
1883
1936
1933
1873
1787
1727
1727
1777
1865
1933
1940
1899
1808
1733
1717
1751
1838
1923
1965
1936
1859
1774
1735
1757
1822
1910
1959
1954
1895
1810
1762
1767
1819
1906
1972
1984
1943
1856
1781
1764
1803
1886
1970
2001
1975
1902
1818
1783
1808
1875
1972
2032
2029
1966
1872
1819
1819
1871
1965
2033
2055
2014
1931
1859
1852
1892
1974
2061
2097
2067
1984
1894
1857
1879
1947
2043
2109
2103
2043
1959
1905
1915
1973
2071
2139
2152
2107
2013
1937
1922
1966
2044
2127
2161
2139
2066
1985
1955
1983
2047
2141
2192
2188
2127
2033
1984
1996
2059
2153
2224
2239
2192
2106
2031
2013
2047
2127
2202
2237
2215
2150
2087
2071
2112
2190
2286
2336
2323
2256
2169
2112
2115
2166
2254
2315
2321
2271
2178
2101
2083
2114
2192
2274
2307
2283
2207
2126
2095
2117
2192
2283
2333
2320
2256
2171
2118
2128
2181
2275
2343
2352
2305
2222
2155
2140
2183
2270
2353
2386
2357
2282
2202
2167
2191
2260
2352
2409
2400
2342
2256
2210
2218
2273
2362
2428
2439
2394
2304
2234
2222
2256
2331
2415
2455
2464
2429
2415
2473
2610
2806
3003
3110
3069
2913
2716
2548
2416
2269
2096
1834
1517
1207
960
846
879
1023
1253
1493
1687
1799
1833
1857
1938
2087
2266
2448
2580
2621
2596
2521
2483
2497
2557
2651
2721
2735
2689
2603
2531
2523
2559
2650
2731
2762
2731
2651
2559
2535
2558
2624
2708
2759
2749
2685
2592
2538
2546
2608
2704
2773
2786
2735
2639
2559
2544
2587
2671
2751
2782
2752
2672
2593
2557
2586
2656
2747
2798
2787
2726
2639
2593
2605
2660
2751
2816
2827
2778
2687
2615
2608
2645
2731
2822
2861
2833
2762
2683
2657
2676
2749
2842
2890
2879
2814
2724
2671
2691
2752
2849
2919
2928
2879
2787
2723
2710
2755
2845
2928
2955
2922
2833
2751
2716
2738
2803
2889
2934
2917
2845
2746
2685
2683
2724
2797
2842
2830
2755
2644
2550
2512
2531
2589
2640
2640
2583
2471
2366
2310
2315
2363
2431
2459
2431
2352
2253
2192
2190
2235
2318
2370
2368
2307
2213
2141
2131
2174
2256
2326
2351
2318
2234
2156
2121
2142
2209
2290
2330
2310
2237
2144
2096
2103
2160
2244
2304
2306
2247
2155
2085
2079
2118
2207
2283
2306
2268
2181
2097
2065
2095
2161
2245
2288
2271
2198
2108
2057
2065
2123
2211
2267
2269
2217
2122
2059
2047
2094
2170
2237
2250
2207
2115
2027
2000
2021
2095
2175
2209
2186
2112
2015
1965
1973
2029
2112
2167
2166
2112
2013
1945
1936
1975
2063
2133
2151
2110
2012
1931
1902
1923
1994
2077
2112
2091
2015
1925
1878
1890
1942
2030
2085
2080
2017
1921
1854
1843
1879
1958
2026
2042
2000
1910
1831
1806
1836
1903
1983
2019
1995
1924
1834
1787
1793
1846
1931
1984
1983
1923
1837
1776
1770
1813
1894
1966
1979
1936
1846
1767
1741
1774
1844
1925
1958
1933
1858
1769
1719
1734
1788
1873
1933
1927
1870
1775
1709
1701
1739
1821
1894
1911
1871
1776
1695
1671
1703
1777
1862
1898
1871
1790
1695
1649
1662
1715
1807
1859
1860
1802
1709
1646
1643
1691
1776
1847
1862
1816
1727
1648
1616
1645
1712
1790
1824
1794
1724
1642
1607
1638
1711
1810
1874
1879
1819
1726
1649
1645
1679
1756
1818
1833
1776
1677
1593
1566
1585
1651
1728
1760
1731
1648
1535
1494
1515
1581
1664
1720
1712
1650
1557
1488
1486
1526
1616
1683
1702
1658
1571
1488
1461
1489
1568
1648
1679
1647
1566
1466
1422
1435
1493
1588
1647
1645
1585
1483
1415
1411
1455
1535
1606
1617
1578
1477
1397
1371
1399
1475
1566
1612
1611
1575
1535
1585
1709
1893
2103
2235
2242
2119
1910
1714
1573
1424
1254
1003
665
304
0
0
0
0
64
294
503
655
734
773
854
995
1183
1389
1535
1609
1600
1533
1485
1488
1535
1630
1701
1722
1679
1586
1504
1481
1514
1591
1673
1706
1680
1600
1507
