0
0
0
0
0
0
0
0
0
0
0
0
0
0
0
0
0
0
0
0
0
0
0
0
0
0
0
0
0
0
0
0
0
0
0
0
0
0
0
0
0
0
0
0
0
0
0
0
0
0
0
0
0
0
0
0
0
0
0
0
0
0
0
0
0
0
0
0
0
0
0
0
0
0
0
0
0
0
0
0
0
0
0
0
0
0
0
0
0
0
0
0
67
230
336
358
277
196
141
157
259
419
560
579
501
389
320
322
428
602
749
817
783
676
585
545
592
722
874
955
945
848
734
656
679
784
923
1023
1031
935
819
729
706
791
912
1015
1040
966
835
704
643
694
832
982
1083
1040
915
786
721
742
830
953
1051
1056
974
880
790
776
862
1023
1187
1239
1170
1038
921
879
930
1073
1216
1300
1274
1179
1069
989
997
1109
1259
1355
1348
1267
1153
1072
1071
1173
1329
1463
1502
1449
1344
1239
1181
1229
1361
1521
1609
1590
1517
1429
1377
1379
1470
1604
1683
1669
1583
1463
1374
1337
1403
1565
1727
1783
1727
1611
1488
1439
1488
1632
1776
1834
1774
1637
1509
1471
1511
1623
1779
1894
1899
1803
1645
1527
1493
1535
1653
1758
1770
1696
1612
1595
1694
1910
2207
2466
2637
2643
2531
2389
2271
2207
2157
2079
1934
1729
1502
1317
1173
1164
1291
1517
1730
1826
1792
1687
1611
1623
1725
1871
2013
2107
2113
2047
1943
1867
1860
1941
2087
2193
2207
2131
2001
1899
1893
2002
2181
2317
2361
2291
2162
2029
1984
2063
2225
2375
2467
2439
2324
2222
2166
2183
2285
2423
2513
2521
2448
2346
2256
2263
2349
2509
2659
2681
2608
2480
2360
2302
2341
2479
2662
2785
2801
2716
2607
2544
2549
2645
2780
2864
2847
2745
2605
2482
2464
2559
2751
2901
2917
2827
2682
2531
2443
2454
2559
2685
2735
2689
2553
2401
2288
2256
2336
2490
2627
2642
2556
2418
2294
2256
2317
2450
2559
2594
2515
2391
2274
2209
2247
2371
2513
2593
2544
2430
2302
2219
2240
2336
2471
2559
2582
2491
2370
2284
2274
2347
2474
2599
2618
2529
2393
2267
2223
2283
2423
2592
2643
2583
2458
2325
2249
2269
2384
2533
2635
2636
2551
2434
2352
2356
2448
2607
2733
2752
2665
2493
2347
2293
2341
2473
2608
2658
2606
2470
2322
2233
2249
2371
2512
2598
2559
2463
2348
2269
2242
2306
2427
2535
2546
2479
2351
2224
2165
2172
2245
2359
2381
2290
2170
2064
2037
2182
2461
2800
3089
3232
3241
3155
3069
3023
3027
3031
2938
2724
2442
2144
1887
1751
1747
1872
2039
2149
2163
2113
2045
2016
2063
2176
2348
2464
2480
2407
2305
2235
2211
2266
2420
2559
2601
2507
2352
2234
2199
2272
2405
2559
2646
2611
2496
2357
2265
2254
2352
2491
2559
2559
2479
2369
2288
2289
2367
2505
2641
2674
2606
2496
2384
2320
2351
2483
2647
2736
2715
2623
2515
2453
2465
2559
2705
2800
2807
2741
2649
2555
2544
2624
2751
2864
2878
2801
2669
2533
2464
2493
2631
2783
2880
2848
2727
2579
2463
2435
2514
2647
2723
2678
2533
2371
2256
2251
2341
2479
2598
2588
2471
2321
2205
2160
2205
2325
2443
2499
2449
2333
2201
2113
2095
2178
2334
2448
2442
2343
2211
2107
2081
2148
2287
2417
2447
2352
2192
2041
1979
2032
2171
2319
2381
2346
2266
2167
2095
2079
2160
2289
2369
2343
2242
2138
2069
2064
2160
2304
2428
2453
2379
2246
2127
2082
2127
2250
2397
2467
2427
2319
2207
2128
2107
2167
2288
2391
2397
2288
2127
1984
1929
1982
2102
2238
2271
2196
2069
1936
1881
1932
2090
2245
2303
2240
2116
1981
1893
1877
1965
2096
2164
2128
2002
1847
1712
1718
1886
2190
2503
2751
2855
2823
2751
2722
2771
2878
2928
2835
2559
2199
1862
1617
1503
1513
1617
1725
1776
1747
1680
1648
1677
1779
1935
2081
2133
2090
1968
1861
1819
1862
1990
2123
2195
2160
2045
1908
1830
1845
1968
2107
2186
2167
2065
1925
1820
1806
1890
2055
2199
2255
2188
2059
1936
1889
1934
2074
2240
2328
2302
2185
2053
1975
1984
2096
2239
2330
2326
2251
2121
2025
2027
2127
2279
2415
2453
2383
2255
2157
2127
2176
2306
2459
2548
2512
2384
2249
2173
2159
2241
2399
2496
2479
2375
2230
2099
2064
2121
2256
2390
2415
2322
2182
2038
1949
1937
2022
2155
2199
2141
2022
1900
1831
1847
1966
2109
2195
2181
2069
1906
1772
1725
1791
1923
2064
2113
2065
1927
1795
1724
1759
1887
2007
2046
1987
1872
1769
1712
1729
1840
2000
2103
2096
2011
1904
1807
1765
1810
1942
2081
2108
2029
1886
1756
1711
1763
1900
2044
2112
2081
1959
1821
1751
1780
1897
2058
2150
2133
2000
1855
1769
1767
1834
1965
2099
2132
2039
1873
1733
1684
1716
1841
1982
2047
1999
1883
1733
1625
1617
1739
1904
2029
2002
1865
1711
1597
1579
1665
1819
1904
1889
1779
1601
1447
1379
1456
1697
2004
2279
2442
2487
2457
2429
2464
2559
2688
2689
2493
2130
1727
1401
1211
1179
1284
1411
1471
1456
1377
1298
1303
1414
1594
1782
1870
1834
1731
1626
1567
1617
1744
1899
2000
1999
1903
1749
1628
1615
1706
1850
1983
2020
1955
1863
1771
1743
1792
1917
2075
2141
2087
1951
1808
1728
1764
1903
2070
2192
2221
2138
1999
1894
1871
1940
2075
2224
2274
2217
2106
1994
1937
1980
2122
2270
2345
2310
2220
2127
2055
2067
2195
2375
2501
2510
2417
2283
2171
2134
2201
2340
2448
2454
2368
2224
2096
2029
2065
2169
2286
2328
2259
2129
1990
1901
1907
2036
2187
2247
2206
2064
1900
1759
1723
1808
1974
2099
2094
1989
1870
1748
1706
1773
1910
2056
2113
2058
1918
1758
1686
1714
1839
1983
2074
2066
1979
1855
1757
1729
1792
1921
2043
2069
2015
1915
1808
1774
1824
1943
2063
2095
2020
1894
1771
1689
1698
1818
1979
2098
2109
2012
1861
1756
1744
1828
1975
2111
2139
2070
1949
1840
1776
1803
1918
2064
2135
2097
1983
1840
1756
1759
1856
2000
2079
2054
1929
1757
1630
1616
1693
1825
1936
1974
1904
1776
1633
1563
1610
1753
1902
1969
1911
1772
1616
1526
1552
1707
1947
2178
2304
2341
2336
2316
2352
2448
2588
2672
2606
2339
1954
1598
1342
1255
1297
1399
1460
1456
1402
1339
1328
1394
1563
1763
1895
1915
1814
1687
1606
1626
1741
1901
2034
2075
1997
1872
1727
1663
1743
1910
2065
2127
2064
1932
1801
1735
1772
1892
2074
2167
2145
2053
1928
1830
1793
1859
1999
2130
2171
2101
1966
1843
1807
1869
2027
2190
2269
2255
2154
2026
1943
1962
2093
2255
2353
2352
2258
2126
2018
2017
2133
2291
2425
2466
2384
2227
2102
2044
2084
2206
2355
2416
2375
2262
2128
2032
2033
2125
2236
2304
2275
2173
2033
1927
1893
1943
2087
2205
2221
2113
1952
1815
1750
1791
1920
2067
2126
2064
1932
1809
1734
1739
1847
2007
2112
2102
2000
1871
1771
1746
1817
1953
2074
2106
2042
1927
1821
1779
1833
1965
2077
2112
2062
1932
1806
1737
1761
1867
2011
2096
2075
1954
1808
1702
1687
1777
1934
2078
2112
2047
1925
1794
1737
1787
1923
2075
2160
2119
1993
1856
1775
1789
1898
2047
2136
2127
2032
1897
1812
1779
1823
1942
2047
2063
1968
1818
1664
1600
1648
1801
1954
2023
1978
1858
1734
1663
1680
1794
1949
2037
2000
1856
1667
1515
1478
1567
1744
1974
2143
2231
2260
2265
2279
2379
2542
2666
2671
2526
2245
1872
1535
1357
1323
1404
1461
1454
1373
1282
1239
1296
1449
1669
1861
1951
1936
1862
1751
1691
1713
1820
1946
2000
1946
1814
1680
1635
1685
1822
2005
2139
2128
2010
1863
1761
1743
1824
1970
2111
2155
2084
1949
1830
1779
1839
1987
2139
2205
2166
2058
1945
1893
1926
2047
2213
2311
2304
2214
2096
2015
2015
2102
2253
2388
2434
2364
2230
2103
2047
2112
2243
2399
2481
2437
2323
2209
2131
2147
2238
2375
2470
2471
2374
2245
2149
2126
2176
2295
2394
2391
2317
2193
2055
1986
2015
2123
2231
2275
2214
2086
1955
1877
1894
2001
2155
2221
2171
2011
1855
1746
1724
1786
1932
2068
2118
2064
1936
1803
1737
1776
1902
2032
2112
2080
1959
1822
1732
1743
1853
2001
2122
2133
2061
1925
1805
1771
1834
1982
2113
2142
2073
1936
1806
1744
1781
1929
2070
2143
2112
1991
1862
1791
1803
1904
2057
2165
2174
2090
1956
1844
1835
1926
2079
2207
2209
2115
1981
1859
1808
1850
1963
2108
2147
2089
1962
1822
1735
1744
1831
1956
2034
2025
1941
1831
1738
1714
1771
1903
2011
2005
1904
1762
1650
1618
1679
1787
1903
1906
1835
1691
1563
1535
1681
1955
2295
2559
2692
2674
2583
2487
2460
2480
2496
2431
2226
1920
1601
1335
1200
1204
1338
1510
1616
1631
1579
1505
1472
1523
1671
1849
1969
1968
1863
1714
1603
1595
1695
1872
2035
2097
2034
1909
1783
1722
1755
1872
2019
2100
2067
1954
1821
1742
1757
1861
2026
2160
2173
2090
1945
1863
1859
1945
2106
2230
2252
2171
2030
1914
1886
1941
2086
2239
2329
2299
2192
2091
2018
2042
2172
2336
2454
2444
2342
2193
2093
2087
2176
2318
2435
2454
2382
2241
2116
2070
2123
2262
2416
2501
2479
2359
2214
2123
2112
2181
2295
2370
2340
2226
2081
1967
1955
2031
2162
2270
2274
2171
2000
1843
1766
1808
1927
2071
2134
2082
1939
1802
1725
1738
1855
2007
2101
2085
1986
1858
1771
1747
1840
1999
2147
2183
2102
1951
1811
1758
1805
1923
2064
2135
2096
1967
1831
1749
1765
1872
2025
2128
2119
1999
1835
1712
1699
1793
1947
2083
2103
2023
1902
1791
1764
1840
1997
2162
2226
2179
2062
1920
1840
1866
1975
2122
2197
2161
2029
1861
1745
1723
1792
1925
2062
2095
2000
1863
1739
1681
1712
1819
1949
1989
1914
1789
1671
1619
1648
1757
1904
2010
1996
1867
1695
1533
1459
1513
1666
1822
1932
1973
2004
2075
2193
2371
2598
2800
2896
2847
2662
2381
2066
1813
1678
1648
1632
1567
1451
1334
1273
1295
1414
1607
1783
1856
1807
1705
1616
1601
1659
1794
1930
1973
1933
1829
1728
1682
1687
1762
1891
1985
1988
1903
1772
1673
1665
1749
1904
2031
2054
1969
1840
1727
1710
1798
1958
2106
2167
2138
2047
1968
1915
1931
2023
2160
2245
2231
2130
2000
1896
1869
1948
2121
2279
2334
2271
2155
2058
2032
2105
2256
2409
2464
2415
2288
2175
2099
2097
2192
2339
2432
2413
2308
2175
2068
2059
2146
2305
2439
2462
2384
2224
2047
1946
1967
2097
2233
2277
2197
2039
1874
1760
1750
1843
1974
2067
2063
1985
1851
1733
1712
1791
1902
2002
2017
1931
1797
1685
1647
1693
1835
1975
2035
1983
1863
1743
1673
1691
1783
1925
2011
2001
1894
1743
1648
1633
1727
1883
2003
2015
1918
1792
1677
1643
1691
1829
1990
2073
2032
1915
1766
1679
1685
1777
1922
2031
2037
1971
1857
1744
1714
1792
1947
2080
2112
2027
1890
1771
1727
1759
1878
2018
2089
2023
1877
1714
1603
1594
1674
1801
1891
1893
1795
1699
1625
1605
1670
1803
1921
1963
1891
1754
1630
1578
1610
1727
1855
1895
1798
1631
1470
1382
1429
1631
1919
2192
2368
2419
2416
2399
2439
2523
2639
2677
2512
2166
1767
1408
1182
1104
1179
1315
1392
1397
1359
1296
1274
1333
1510
1710
1840
1851
1780
1662
1582
1589
1680
1838
1970
2007
1935
1827
1712
1670
1714
1840
1979
2047
2002
1911
1791
1703
1712
1799
1932
2017
2000
1910
1799
1719
1734
1843
2032
2195
2237
2151
2018
1922
1871
1919
2038
2178
2250
2218
2111
1993
1920
1914
2025
2205
2325
2339
2257
2128
2019
2000
2093
2255
2385
2411
2324
2195
2086
2058
2113
2240
2368
2411
2341
2212
2079
1994
2007
2102
2237
2293
2245
2126
1984
1893
1882
1936
2045
2155
2169
2086
1934
1787
1707
1727
1853
2007
2082
2031
1899
1772
1702
1723
1839
1997
2081
2042
1926
1770
1673
1660
1734
1879
1987
2003
1925
1808
1703
1659
1722
1857
2000
2065
2006
1878
1743
1647
1661
1749
1901
1991
1990
1891
1763
1664
1645
1727
1872
1988
1999
1917
1823
1712
1667
1725
1872
2041
2124
2094
1969
1840
1751
1761
1860
1991
2074
2047
1957
1826
1711
1680
1751
1907
2029
2068
1979
1831
1702
1647
1686
1806
1934
1999
1966
1850
1725
1650
1648
1741
1893
1994
1985
1872
1699
1535
1471
1506
1623
1750
1823
1839
1813
1838
1938
2138
2384
2592
2698
2682
2551
2365
2165
1971
1849
1783
1709
1578
1393
1216
1105
1109
1237
1462
1683
1791
1764
1650
1535
1515
1584
1744
1904
1987
1968
1860
1738
1670
1680
1785
1949
2081
2101
2002
1871
1764
1743
1809
1968
2097
2118
2033
1904
1791
1755
1805
1952
2125
2203
2161
2045
1922
1859
1884
1991
2150
2254
2237
2128
1993
1907
1919
2030
2197
2347
2391
2332
2206
2078
2019
2090
2241
2397
2480
2443
2343
2230
2169
2187
2288
2431
2528
2509
2403
2263
2145
2124
2201
2346
2455
2479
2393
2243
2093
1999
2015
2142
2278
2335
2279
2146
2000
1899
1874
1943
2067
2158
2160
2067
1922
1809
1779
1844
1986
2107
2141
2085
1961
1840
1784
1809
1936
2096
2160
2110
1982
1848
1758
1751
1853
1999
2115
2129
2039
1894
1779
1746
1799
1939
2075
2123
2069
1955
1843
1787
1822
1939
2070
2127
2096
1979
1838
1749
1764
1874
2033
2135
2135
2046
1923
1810
1801
1885
2035
2173
2205
2130
2017
1897
1813
1841
1971
2137
2207
2160
2022
1866
1774
1757
1842
1978
2080
2062
1959
1825
1727
1705
1763
1895
2019
2047
1970
1838
1702
1642
1677
1811
1941
2002
1958
1819
1635
1485
1451
1535
1727
1936
2085
2176
2236
2291
2379
2501
2674
2813
2832
2683
2386
2030
1730
1582
1553
1579
1580
1524
1434
1349
1321
1372
1520
1723
1870
1889
1821
1716
1634
1611
1680
1823
1965
1995
1929
1815
1709
1661
1706
1836
1979
2064
2044
1947
1811
1721
1729
1841
2003
2133
2143
2065
1936
1825
1784
1854
2010
2149
2192
2126
2000
1894
1855
1888
1999
2133
2224
2215
2127
2014
1936
1949
2061
2234
2374
2409
2327
2197
2096
2083
2163
2325
2479
2526
2459
2327
2201
2128
2149
2279
2432
2511
2465
2333
2186
2094
2095
2181
2321
2415
2396
2283
2128
2007
1968
2015
2135
2238
2244
2151
2021
1903
1835
1845
1937
2062
2127
2092
1974
1857
1758
1742
1839
1986
2119
2148
2067
1914
1776
1716
1781
1923
2070
2126
2062
1918
1779
1703
1717
1831
1981
2067
2043
1941
1823
1737
1738
1840
1980
2096
2096
1999
1859
1755
1723
1792
1936
2079
2123
2061
1931
1808
1744
1790
1926
2087
2174
2144
2027
1889
1798
1798
1889
2039
2157
2158
2043
1904
1787
1749
1803
1941
2079
2121
2047
1911
1777
1715
1747
1856
1993
2080
2039
1915
1749
1637
1623
1714
1840
1936
1951
1869
1752
1649
1616
1671
1792
1894
1891
1791
1619
1471
1429
1552
1821
2161
2432
2559
2559
2496
2450
2492
2595
2688
2647
2427
2095
1728
1425
1264
1247
1351
1487
1569
1535
1479
1415
1409
1481
1635
1804
1899
1881
1778
1648
1571
1587
1697
1875
2006
2012
1919
1767
1633
1590
1662
1827
1979
2038
1983
1862
1743
1689
1747
1886
2038
2128
2102
1987
1872
1778
1778
1882
2045
2176
2181
2094
1966
1883
1885
1973
2128
2261
2307
2256
2147
2034
1984
2019
2138
2285
2363
2343
2236
2119
2047
2079
2206
2354
2467
2480
2394
2277
2157
2096
2119
2239
2373
2433
2393
2274
2143
2074
2091
2191
2320
2386
2323
2176
2010
1899
1874
1947
2082
2185
2176
2066
1911
1792
1756
1810
1968
2118
2146
2064
1922
1790
1714
1741
1851
2001
2092
2064
1936
1807
1713
1709
1800
1939
2061
2076
1984
1826
1682
1615
1658
1800
1951
2001
1939
1822
1712
1658
1689
1819
1978
2073
2047
1936
1808
1725
1717
1813
1962
2081
2085
1985
1851
1746
1735
1798
1921
2064
2128
2085
1959
1833
1754
1775
1859
1974
2063
2047
1947
1812
1717
1717
1813
1946
2023
2015
1922
1799
1712
1658
1680
1783
1904
1959
1899
1751
1610
1535
1598
1730
1872
1963
1935
1831
1711
1622
1616
1677
1776
1825
1778
1701
1642
1663
1799
2054
2371
2642
2768
2741
2611
2450
2327
2227
2133
2018
1846
1653
1426
1222
1095
1095
1219
1418
1597
1671
1642
1535
1466
1488
1600
1767
1930
1987
1941
1824
1716
1671
1682
1790
1937
2013
1983
1861
1728
1649
1675
1807
1982
2099
2097
2003
1878
1789
1761
1822
1972
2110
2148
2105
1988
1856
1795
1835
1973
2145
2245
2227
2117
1979
1906
1936
2064
2219
2318
2311
2230
2112
2007
1994
2085
2270
2432
2480
2404
2287
2176
2113
2113
2211
2350
2423
2416
2342
2237
2160
2142
2202
2350
2447
2433
2334
2167
2015
1956
2015
2160
2282
2318
2241
2098
1937
1836
1837
1959
2118
2199
2160
2034
1887
1785
1775
1856
2003
2128
2129
2041
1904
1793
1766
1839
1970
2111
2151
2096
1968
1839
1765
1770
1875
2022
2097
2082
1984
1860
1776
1773
1863
2001
2110
2116
2045
1930
1819
1789
1856
2007
2149
2190
2125
1971
1838
1781
1815
1935
2082
2149
2113
2000
1877
1802
1808
1904
2061
2183
2207
2124
1982
1872
1839
1891
2011
2126
2167
2117
2000
1871
1790
1809
1922
2070
2153
2137
2023
1869
1741
1727
1808
1936
2045
2062
1977
1850
1730
1685
1742
1885
2037
2079
1975
1808
1650
1578
1627
1805
2032
2242
2378
2434
2438
2425
2436
2500
2631
2699
2631
2398
2059
1728
1513
1440
1494
1584
1603
1535
1438
1360
1363
1461
1645
1842
1971
1998
1931
1824
1731
1727
1820
1975
2106
2121
2039
1907
1814
1808
1889
2032
2160
2186
2116
1997
1872
1811
1851
1984
2138
2225
2199
2085
1943
1869
1887
1997
2146
2245
2255
2179
2059
1946
1935
2014
2154
2288
2339
2314
2229
2143
2095
2149
2287
2421
2506
2483
2383
2252
2155
2145
2234
2380
2495
2517
2448
2327
2225
2192
2239
2368
2497
2544
2480
2352
2224
2134
2154
2255
2385
2474
2448
2326
2176
2066
2057
2123
2224
2289
2263
2157
1999
1867
1826
1895
2032
2176
2234
2187
2063
1904
1808
1830
1941
2099
2191
2193
2103
1968
1859
1836
1901
2026
2150
2159
2070
1936
1830
1790
1840
1966
2094
2146
2099
1968
1840
1776
1823
1962
2111
2189
2145
2032
1903
1793
1776
1855
2016
2157
2189
2117
1993
1879
1838
1896
2047
2192
2250
2192
2060
1909
1822
1837
1955
2123
2215
2181
2063
1920
1823
1808
1885
2031
2151
2163
2071
1917
1777
1734
1797
1936
2065
2098
2030
1906
1785
1714
1759
1889
2003
2066
2022
1917
1781
1675
1649
1719
1842
1919
1887
1776
1638
1535
1594
1774
2082
2393
2611
2673
2603
2531
2480
2487
2541
2558
2448
2195
1889
1594
1349
1231
1264
1415
1585
1669
1664
1597
1522
1522
1601
1728
1900
1969
1931
1825
1709
1629
1648
1779
1943
2071
2089
1998
1869
1762
1744
1829
1984
2116
2142
2062
1936
1840
1812
1872
2006
2132
2182
2121
2004
1878
1815
1851
1981
2153
2261
2263
2174
2037
1941
1947
2044
2207
2346
2374
2306
2176
2054
2014
2095
2256
2448
2541
2499
2371
2224
2138
2151
2265
2419
2511
2484
2384
2257
2171
2176
2275
2416
2523
2534
2417
2252
2117
2064
2109
2223
2352
2401
2346
2199
2032
1919
1905
1977
2098
2167
2142
2031
1903
1809
1804
1886
2030
2135
2132
2036
1910
1808
1783
1840
1963
2095
2143
2087
1951
1814
1729
1750
1860
1999
2082
2064
1967
1840
1744
1735
1833
1977
2099
2110
2014
1882
1758
1719
1770
1906
2055
2124
2071
1938
1813
1744
1756
1862
2002
2112
2102
1995
1854
1746
1738
1823
1985
2119
2148
2102
1991
1881
1835
1878
2013
2141
2192
2143
2031
1902
1821
1835
1920
2037
2112
2066
1947
1814
1713
1708
1781
1904
2005
2015
1924
1791
1685
1633
1661
1776
1920
1988
1936
1814
1669
1567
1552
1616
1712
1763
1766
1734
1739
1811
1974
2234
2513
2747
2832
2786
2658
2511
2370
2235
2127
2000
1826
1624
1423
1255
1165
1191
1328
1510
1653
1683
1616
1510
1449
1471
1588
1766
1931
1987
1936
1822
1709
1651
1687
1811
1982
2047
1989
1845
1701
1645
1679
1805
1962
2080
2073
1967
1823
1719
1715
1817
1991
2147
2179
2095
1950
1808
1735
1787
1942
2121
2213
2182
2087
1951
1871
1896
2009
2162
2267
2277
2203
2101
2023
2031
2129
2293
2435
2467
2401
2257
2112
2036
2094
2225
2357
2419
2373
2266
2151
2075
2075
2173
2329
2428
2381
2240
2075
1965
1951
2033
2180
2294
2301
2203
2041
1900
1849
1874
2000
2112
2128
2064
1922
1772
1674
1676
1786
1946
2058
2035
1936
1791
1679
1629
1680
1840
1987
2032
1965
1826
1693
1641
1679
1806
1943
1994
1930
1806
1681
1622
1653
1773
1921
2011
1991
1882
1742
1655
1659
1753
1897
2005
2032
1943
1791
1665
1637
1691
1813
1951
2014
1965
1846
1729
1663
1679
1791
1936
2035
2023
1923
1789
1685
1664
1751
1906
2034
2047
1952
1813
1685
1629
1664
1777
1916
1966
1894
1757
1602
1499
1507
1620
1771
1866
1870
1786
1631
1509
1495
1589
1729
1845
1850
1735
1554
1387
1313
1370
1556
1820
2065
2215
2288
2318
2325
2362
2480
2623
2674
2544
2223
1824
1482
1281
1219
1291
1375
1409
1359
1281
1201
1200
1296
1457
1638
1741
1738
1649
1535
1471
1491
1621
1791
1914
1921
1833
1712
1631
1612
1685
1824
1942
1975
1926
1799
1680
1642
1686
1820
1959
2027
1991
1891
1782
1728
1754
1867
2026
2130
2111
2010
1901
1808
1807
1886
2027
2150
2177
2124
2011
1905
1871
1946
2102
2262
2347
2317
2197
2059
1967
1984
2098
2243
2345
2353
2272
2149
2031
2001
2081
2226
2357
2390
2317
2164
2019
1957
1990
2117
2255
2300
2242
2124
1994
1920
1906
1967
2087
2155
2128
2021
1857
1733
1699
1773
1922
2075
2110
2033
1883
1751
1697
1739
1855
1984
2037
1991
1863
1714
1637
1667
1771
1913
2008
1987
1879
1774
1678
1679
1761
1895
2013
2015
1925
1788
1664
1622
1664
1803
1948
2011
1968
1850
1712
1631
1647
1737
1874
1981
1974
1887
1757
1680
1667
1743
1885
2003
2031
1977
1835
1723
1670
1720
1839
1977
2035
1977
1857
1734
1662
1679
1779
1930
2037
2029
1919
1757
1644
1611
1681
1834
1955
1975
1898
1767
1635
1570
1605
1738
1886
1946
1905
1779
1631
1526
1510
1574
1698
1778
1766
1679
1600
1602
1742
1990
2299
2559
2688
2662
2547
2433
2356
2298
2215
2096
1911
1680
1414
1200
1078
1082
1205
1397
1555
1606
1568
1475
1410
1421
1520
1695
1858
1921
1883
1797
1699
1651
1696
1807
1949
2033
2021
1936
1817
1721
1694
1757
1904
2032
2046
1955
1831
1734
1729
1824
1983
2122
2160
2094
1941
1793
1724
1775
1894
2015
2079
2046
1933
1803
1712
1700
1774
1911
2021
2030
1943
1823
1711
1673
1761
1914
2054
2093
2013
1879
1769
1727
1774
1927
2089
2161
2125
2000
1872
1791
1798
1894
2037
2131
2118
2027
1914
1811
1780
1815
1921
2027
2042
1973
1840
1709
1630
1648
1758
1881
1932
1901
1813
1709
1636
1643
1739
1871
1957
1949
1841
1691
1582
1535
1617
1769
1917
1952
1882
1755
1641
1616
1670
1808
1959
2058
2033
1913
1773
1680
1679
1775
1935
2037
2029
1923
1798
1684
1648
1711
1863
2003
2045
1982
1872
1757
1679
1706
1847
1982
2059
2012
1901
1778
1710
1727
1846
2015
2153
2174
2096
1978
1866
1822
1871
1996
2130
2176
2109
1971
1831
1754
1786
1904
2037
2102
2063
1951
1834
1751
1744
1822
1954
2057
2045
1952
1837
1730
1703
1766
1907
2017
2030
1959
1840
1699
1599
1583
1657
1809
1918
1961
1961
1975
2064
2241
2480
2726
2899
2943
2845
2662
2423
2179
1991
1903
1856
1768
1614
1435
1317
1295
1375
1566
1761
1878
1872
1792
1680
1616
1661
1791
1973
2095
2102
2015
1881
1797
1775
1845
1989
2127
2185
2126
1995
1856
1776
1808
1950
2126
2224
2199
2096
1963
1887
1887
1976
2130
2254
2260
2191
2078
1974
1968
2058
2209
2349
2410
2369
2255
2126
2062
2105
2235
2379
2464
2425
2307
2189
2129
2154
2261
2416
2524
2529
2448
2327
2237
2211
2285
2418
2530
2559
2491
2357
2224
2160
2189
2308
2458
2538
2500
2378
2224
2107
2093
2173
2306
2389
2359
2243
2087
1936
1877
1914
2033
2163
2205
2153
2033
1907
1843
1873
1995
2135
2198
2161
2045
1903
1807
1808
1899
2045
2155
2155
2064
1915
1809
1793
1871
2017
2155
2171
2085
1935
1792
1728
1762
1907
2057
2146
2118
2003
1871
1776
1774
1863
2013
2123
2128
2035
1904
1779
1737
1807
1955
2101
2149
2096
1987
1872
1825
1872
2015
2178
2260
2226
2110
1955
1841
1826
1921
2071
2191
2195
2107
1961
1840
1792
1835
1963
2069
2089
2011
1883
1750
1686
1717
1829
1946
2010
1979
1867
1738
1652
1673
1781
1927
2023
2017
1904
1757
1593
1487
1476
1584
1749
1885
1985
2064
2135
2253
2422
2631
2827
2938
2901
2734
2448
2116
1846
1707
1682
1679
1603
1487
1351
1264
1282
1399
1594
1764
1848
1835
1731
1637
1602
1648
1771
1917
2017
2000
1887
1749
1655
1648
1739
1893
2003
2017
1954
1847
1747
1733
1806
1957
2079
2116
2079
1973
1847
1778
1813
1936
2094
2182
2169
2059
1936
1872
1904
2001
2138
2238
2242
2160
2042
1961
1951
2032
2196
2355
2432
2395
2278
2164
2106
2140
2258
2404
2487
2475
2368
2231
2138
2128
2219
2369
2491
2509
2421
2263
2128
2095
2166
2317
2454
2494
2398
2224
2057
1947
1944
2060
2203
2285
2230
2075
1899
1790
1789
1877
2013
2144
2147
2039
1891
1760
1715
1785
1927
2081
2129
2079
1956
1825
1754
1776
1890
2019
2096
2058
1931
1784
1691
1696
1787
1936
2057
2055
1952
1814
1717
1684
1735
1862
2001
2061
2017
1905
1789
1715
1744
1851
2003
2091
2073
1972
1839
1725
1702
1791
1947
2079
2105
2030
1904
1790
1757
1805
1932
2079
2149
2117
1987
1835
1761
1793
1918
2061
2144
2112
1984
1830
1709
1674
1745
1875
1978
1978
1887
1747
1646
1607
1680
1827
1951
1987
1936
1811
1671
1600
1616
1727
1870
1947
1919
1780
1597
1456
1453
1601
1883
2169
2369
2457
2483
2480
2486
2559
2694
2793
2733
2477
2101
1728
1462
1358
1374
1451
1509
1499
1431
1353
1317
1354
1486
1679
1845
1903
1853
1747
1649
1619
1690
1840
1986
2038
1978
1868
1748
1699
1743
1878
2033
2123
2095
1977
1834
1725
1719
1811
1973
2112
2153
2096
1968
1847
1802
1863
2000
2141
2207
2167
2052
1922
1856
1901
2022
2187
2288
2279
2176
2030
1953
1968
2087
2243
2371
2398
2309
2186
2097
2079
2134
2279
2423
2469
2387
2256
2128
2047
2065
2173
2314
2411
2394
2299
2162
2075
2077
2165
2304
2397
2397
2301
2147
1997
1929
1968
2085
2204
2243
2151
1983
1831
1766
1812
1920
2064
2137
2107
1986
1851
1745
1729
1809
1959
2094
2111
2030
1903
1798
1767
1835
1968
2109
2166
2116
1977
1834
1762
1781
1887
2028
2117
2099
1991
1851
1757
1757
1846
1989
2102
2113
2032
1920
1815
1774
1834
1981
2141
2195
2129
1991
1847
1751
1766
1892
2064
2171
2165
2070
1936
1841
1835
1923
2079
2194
2193
2092
1936
1819
1789
1860
2001
2141
2192
2129
1981
1830
1737
1753
1872
2031
2113
2087
1994
1876
1792
1785
1862
1982
2085
2082
1988
1843
1719
1670
1712
1821
1925
1950
1872
1743
1631
1623
1773
2047
2397
2651
2725
2654
2525
2438
2430
2468
2493
2416
2183
1856
1535
1274
1146
1167
1310
1504
1641
1658
1594
1508
1474
1527
1681
1877
1995
1988
1914
1798
1706
1698
1799
1975
2123
2141
2057
1902
1773
1721
1775
1917
2071
2133
2096
1986
1871
1802
1823
1952
2122
2224
2198
2076
1921
1825
1811
1901
2065
2219
2271
2218
2113
2001
1961
2011
2167
2320
2389
2362
2243
2111
2031
2064
2192
2377
2503
2514
2434
2304
2193
2165
2238
2387
2526
2557
2489
2365
2240
2186
2237
2368
2499
2554
2497
2359
2206
2109
2101
2192
2327
2415
2374
2231
2047
1915
1883
1936
2078
2195
2228
2142
2000
1871
1819
1872
2019
2173
2231
2173
2031
1873
1781
1813
1931
2080
2172
2151
2032
1885
1793
1790
1872
2018
2151
2178
2094
1942
1820
1767
1807
1936
2079
2143
2106
1971
1838
1765
1786
1885
2017
2113
2099
1997
1872
1777
1770
1862
2027
2155
2175
2096
1943
1819
1767
1829
1966
2109
2162
2128
2005
1877
1799
1819
1941
2125
2249
2247
2131
1983
1870
1851
1934
2070
2191
2209
2115
1942
1787
1719
1754
1903
2065
2151
2114
1995
1851
1744
1728
1808
1933
2016
2000
1907
1783
1679
1645
1695
1827
1934
1933
1815
1647
1514
1500
1643
1929
2272
2531
2677
2679
2617
2559
2591
2683
2765
2707
2459
2119
1773
1487
1335
1323
1423
1559
1621
1607
1518
1419
1395
1493
1678
1856
1946
1927
1823
1687
1619
1639
1769
1932
2039
2022
1929
1806
1713
1712
1783
1911
2034
2077
2006
1875
1769
1709
1753
1891
2045
2128
2100
1989
1866
1776
1792
1907
2064
2180
2188
2112
1975
1872
1854
1923
2086
2239
2293
2242
2126
2012
2000
2083
2242
2391
2448
2384
2258
2130
2047
2069
2178
2350
2463
2459
2364
2245
2142
2112
2171
2302
2426
2447
2354
2211
2092
2023
2054
2160
2287
2341
2275
2149
2005
1921
1914
1982
2109
2191
2165
2064
1920
1810
1788
1857
1989
2096
2112
2031
1907
1797
1741
1779
1897
2027
2095
2054
1926
1777
1680
1691
1808
1965
2083
2087
1981
1840
1727
1687
1738
1856
1985
2033
1967
1833
1713
1661
1706
1840
1989
2058
1999
1887
1759
1682
1710
1822
1991
2099
2093
1974
1824
1710
1669
1753
1913
2068
2103
2015
1872
1759
1733
1791
1918
2054
2126
2085
1951
1806
1723
1746
1871
2029
2117
2091
1953
1782
1660
1627
1702
1859
2010
2065
2000
1855
1697
1610
1627
1739
1883
1961
1922
1811
1687
1601
1603
1693
1821
1919
1879
1728
1535
1394
1366
1483
1727
2003
2234
2366
2416
2428
2431
2495
2639
2789
2815
2661
2337
1953
1645
1467
1431
1477
1519
1489
1405
1286
1213
1239
1367
1585
1776
1860
1835
1731
1616
1563
1595
1718
1873
1962
1936
1817
1671
1578
1584
1697
1863
1989
2000
1919
1792
1697
1680
1761
1917
2042
2077
2001
1893
1796
1754
1808
1923
2074
2159
2134
2032
1918
1840
1851
1965
2118
2243
2273
2207
2099
2013
1987
2064
2229
2386
2425
2357
2229
2100
2041
2098
2240
2405
2496
2466
2345
2198
2103
2106
2210
2379
2480
2454
2345
2194
2089
2055
2112
2235
2343
2359
2258
2098
1949
1885
1904
2031
2191
2267
2228
2098
1936
1820
1791
1865
2002
2109
2094
1982
1836
1718
1680
1729
1872
2032
2075
1996
1859
1726
1666
1705
1824
1969
2034
1994
1890
1759
1670
1665
1749
1878
1983
1981
1894
1775
1675
1658
1726
1894
2031
2093
2025
1886
1744
1680
1718
1835
1968
2035
1995
1886
1747
1664
1680
1783
1926
2030
2032
1942
1803
1726
1713
1792
1947
2100
2153
2101
1954
1809
1742
1759
1857
1981
2046
2025
1925
1790
1679
1669
1767
1887
1987
1999
1920
1783
1663
1616
1667
1799
1943
1999
1936
1808
1683
1616
1647
1779
1939
2011
1957
1825
1665
1535
1521
1587
1727
1841
1874
1852
1840
1897
2047
2287
2559
2779
2847
2770
2597
2381
2160
1956
1819
1741
1659
1514
1337
1168
1077
1098
1243
1467
1669
1748
1707
1603
1518
1506
1598
1782
1943
1997
1934
1793
1668
1619
1669
1805
1968
2044
2001
1889
1746
1666
1671
1758
1914
2044
2066
1984
1870
1787
1776
1851
1985
2111
2141
2079
1953
1840
1801
1856
1988
2157
2261
2259
2163
2032
1942
1919
1993
2128
2230
2255
2189
2085
1989
1979
2062
2224
2386
2451
2404
2303
2181
2106
2127
2254
2384
2448
2413
2291
2147
2058
2036
2122
2240
2359
2374
2294
2159
2031
1990
2037
2169
2293
2325
2225
2054
1886
1786
1797
1898
2045
2118
2090
1983
1845
1742
1723
1798
1949
2081
2099
2019
1897
1787
1744
1799
1936
2090
2155
2099
1969
1835
1759
1772
1877
2021
2103
2079
1970
1841
1743
1733
1822
1975
2099
2115
2027
1883
1763
1712
1770
1912
2064
2113
2047
1906
1766
1697
1728
1855
1999
2094
2064
1962
1829
1743
1750
1855
2013
2137
2159
2075
1936
1829
1779
1849
1987
2114
2153
2091
1964
1846
1779
1808
1955
2113
2190
2127
1968
1821
1727
1723
1815
1944
2043
2039
1947
1809
1697
1648
1694
1826
1965
2013
1957
1846
1743
1694
1706
1778
1872
1914
1867
1789
1722
1727
1854
2101
2411
2653
2742
2706
2608
2513
2467
2425
2371
2257
2074
1808
1504
1261
1136
1161
1316
1535
1699
1748
1708
1614
1535
1535
1657
1839
1973
2015
1959
1846
1758
1741
1823
1984
2128
2156
2064
1904
1770
1712
1756
1919
2110
2206
2187
2074
1905
1791
1773
1859
2023
2169
2194
2127
2017
1921
1910
1997
2144
2282
2326
2256
2121
1984
1931
1969
2096
2255
2351
2335
2251
2150
2086
2095
2194
2354
2482
2514
2455
2320
2191
2138
2193
2332
2477
2539
2506
2387
2273
2208
2213
2295
2426
2500
2474
2357
2223
2123
2105
2193
2333
2445
2427
2309
2145
2003
1951
1982
2085
2192
2238
2178
2039
1887
1804
1822
1939
2107
2202
2177
2058
1901
1782
1757
1846
1999
2131
2139
2045
1904
1779
1739
1798
1943
2112
2164
2108
1965
1819
1719
1731
1853
1998
2099
2098
2002
1878
1776
1760
1842
1984
2097
2112
2035
1893
1774
1734
1805
1962
2126
2178
2115
1977
1841
1761
1778
1899
2047
2138
2117
2015
1895
1808
1815
1914
2082
2197
2215
2160
2042
1936
1887
1914
2029
2160
2194
2130
2000
1862
1772
1771
1879
2055
2172
2156
2032
1867
1727
1691
1773
1938
2098
2128
2032
1882
1731
1673
1710
1859
2000
2059
1967
1835
1695
1601
1583
1648
1758
1830
1838
1841
1879
1981
2160
2404
2666
2864
2945
2903
2747
2518
2288
2098
1982
1925
1834
1667
1458
1280
1197
1258
1438
1673
1833
1871
1789
1675
1591
1597
1692
1871
2023
2073
2000
1870
1757
1712
1741
1858
1997
2062
2013
1889
1746
1679
1711
1836
2018
2151
2155
2039
1900
1793
1790
1872
2033
2176
2224
2160
2025
1904
1858
1901
2027
2186
2257
2224
2115
1997
1935
1974
2102
2270
2384
2369
2263
2130
2039
2027
2112
2270
2421
2469
2406
2286
2178
2139
2199
2339
2485
2558
2511
2375
2229
2133
2128
2215
2352
2453
2443
2331
2171
2059
2031
2095
2210
2321
2343
2249
2098
1954
1883
1904
2019
2157
2207
2144
2001
1847
1751
1755
1855
1999
2113
2128
2041
1911
1826
1816
1888
2011
2114
2119
2027
1889
1766
1715
1776
1899
2039
2110
2064
1927
1792
1715
1728
1833
1974
2087
2079
1978
1846
1750
1735
1811
1965
2096
2129
2067
1943
1815
1758
1789
1902
2036
2112
2074
1968
1842
1761
1767
1868
2017
2112
2103
2015
1892
1803
1794
1881
2042
2176
2191
2097
1956
1829
1777
1824
1954
2093
2136
2081
1957
1819
1741
1744
1835
1967
2045
2011
1899
1756
1654
1635
1718
1874
1994
2005
1926
1797
1680
1632
1669
1776
1895
1948
1872
1699
1506
1388
1392
1535
1791
2045
2230
2342
2399
2447
2511
2640
2816
2937
2898
2691
2352
1987
1679
1487
1456
1486
1494
1445
1343
1247
1223
1297
1455
1647
1781
1798
1729
1617
1535
1558
1669
1840
1977
2023
1938
1791
1667
1621
1673
1808
1956
2021
1991
1881
1757
1685
1701
1817
1963
2057
2032
1927
1805
1738
1751
1835
1981
2115
2153
2095
1975
1873
1836
1882
2032
2188
2266
2239
2142
2015
1935
1935
2022
2192
2354
2416
2355
2230
2125
2106
2183
2321
2450
2480
2405
2269
2147
2101
2147
2278
2439
2518
2471
2352
2196
2094
2078
2151
2282
2368
2341
2229
2092
1973
1933
1983
2119
2229
2246
2151
1977
1821
1759
1813
1937
2080
2134
2079
1946
1811
1730
1743
1857
2009
2115
2110
2000
1858
1734
1679
1714
1840
1968
2022
1970
1851
1731
1672
1694
1811
1946
2012
1972
1872
1741
1642
1639
1738
1901
2043
2067
1983
1840
1718
1680
1735
1872
2005
2064
2001
1890
1779
1732
1774
1906
2032
2096
2058
1926
1789
1707
1712
1826
2004
2151
2154
2045
1908
1794
1765
1823
1957
2078
2087
1999
1887
1776
1725
1766
1890
2015
2082
2015
1874
1738
1659
1661
1755
1903
2000
1994
1887
1742
1615
1584
1664
1830
1971
2014
1954
1819
1677
1586
1583
1667
1761
1785
1701
1584
1486
1503
1680
1996
2367
2661
2798
2778
2679
2582
2518
2496
2451
2325
2085
1766
1447
1198
1061
1063
1201
1378
1511
1535
1487
1410
1376
1447
1616
1808
1923
1919
1815
1676
1578
1563
1643
1792
1943
2003
1950
1823
1701
1647
1680
1818
1977
2068
2034
1919
1782
1702
1705
1808
1973
2105
2125
2047
1914
1814
1793
1874
2023
2168
2241
2194
2067
1931
1871
1914
2061
2202
2283
2256
2148
2028
1965
1996
2130
2309
2432
2455
2378
2260
2167
2160
2252
2405
2537
2554
2461
2311
2171
2096
2116
2240
2405
2498
2467
2347
2208
2126
2111
2173
2279
2358
2342
2222
2046
1903
1845
1895
2032
2166
2192
2111
1966
1826
1751
1776
1894
2058
2147
2113
1969
1809
1711
1712
1821
1975
2086
2070
1951
1787
1669
1647
1731
1898
2042
2096
2032
1899
1766
1702
1725
1853
1988
2064
2016
1902
1769
1677
1670
1759
1918
2039
2075
2000
1873
1757
1723
1803
1936
2079
2126
2064
1925
1788
1708
1721
1840
1999
2096
2068
1968
1840
1755
1758
1860
2031
2160
2171
2064
1909
1782
1739
1806
1963
2103
2135
2059
1901
1747
1655
1665
1775
1925
1998
1943
1812
1677
1584
1584
1699
1883
2032
2032
1931
1774
1636
1583
1633
1769
1887
1902
1787
1590
1421
1362
1461
1712
2035
2310
2458
2493
2477
2462
2527
2670
2813
2849
2676
2320
1886
1503
1280
1228
1319
1451
1510
1488
1408
1327
1308
1386
1566
1766
1879
1872
1783
1662
1566
1557
1658
1819
1945
1965
1900
1769
1669
1652
1722
1855
1985
2032
1984
1871
1750
1683
1703
1809
1968
2070
2064
1971
1856
1782
1799
1899
2032
2135
2142
2071
1984
1898
1862
1918
2064
2226
2298
2250
2133
2001
1937
1986
2123
2275
2366
2357
2274
2158
2081
2085
2171
2320
2432
2457
2387
2267
2142
2086
2142
2291
2441
2497
2431
2278
2118
2022
2032
2146
2288
2384
2351
2195
2039
1911
1887
1961
2087
2187
2176
2085
1934
1815
1785
1840
1973
2103
2142
2066
1922
1783
1727
1775
1898
2038
2127
2088
1963
1815
1721
1707
1779
1925
2037
2042
1966
1856
1751
1721
1798
1946
2081
2119
2055
1904
1756
1679
1722
1859
2005
2087
2037
1915
1773
1650
1628
1720
1866
2028
2046
1955
1811
1706
1677
1751
1899
2031
2064
1983
1854
1728
1680
1744
1902
2074
2167
2133
2003
1859
1755
1741
1827
1970
2107
2143
2079
1949
1819
1746
1767
1888
2013
2068
1995
1855
1712
1626
1639
1744
1879
1962
1938
1839
1703
1597
1588
1683
1840
1982
2007
1914
1757
1605
1507
1526
1659
1840
1991
2081
2119
2159
2249
2368
2535
2718
2816
2757
2546
2236
1905
1644
1509
1501
1524
1491
1389
1264
1187
1191
1311
1529
1742
1846
1827
1730
1628
1584
1617
1748
1921
2019
1997
1887
1744
1651
1654
1757
1921
2064
2096
2010
1875
1762
1721
1775
1919
2079
2139
2095
1968
1843
1789
1835
1974
2131
2213
2179
2046
1888
1790
1809
1922
2119
2256
2282
2202
2065
1949
1909
1971
2127
2274
2331
2302
2189
2073
1999
2033
2171
2346
2461
2461
2365
2229
2114
2082
2160
2323
2465
2485
2389
2238
2109
2043
2113
2266
2407
2447
2370
2238
2106
2002
2000
2085
2207
2288
2263
2150
1995
1879
1843
1905
2033
2142
2158
2064
1910
1791
1749
1813
1963
2119
2190
2147
2015
1875
1794
1803
1898
2055
2160
2153
2034
1881
1773
1759
1843
2005
2143
2155
2060
1910
1794
1747
1804
1942
2084
2165
2134
2014
1888
1807
1814
1920
2074
2163
2150
2046
1895
1805
1785
1874
2018
2138
2155
2071
1941
1834
1762
1808
1951
2112
2180
2145
2045
1934
1872
1897
2013
2147
2221
2193
2096
1955
1852
1833
1920
2093
2197
2189
2064
1895
1759
1706
1744
1877
2032
2105
2041
1898
1759
1687
1705
1822
1994
2112
2111
1998
1840
1707
1661
1707
1803
1869
1827
1721
1616
1579
1663
1871
2194
2533
2751
2788
2720
2621
2543
2507
2485
2432
2288
2039
1738
1454
1248
1191
1274
1466
1655
1739
1706
1612
1520
1508
1595
1761
1931
2009
1984
1879
1755
1690
1727
1872
2045
2151
2118
1977
1808
1707
1685
1784
1958
2100
2115
2034
1925
1823
1786
1840
1977
2128
2185
2129
2009
1895
1840
1869
1986
2159
2267
2271
2192
2073
1979
1968
2074
2246
2386
2417
2322
2185
2063
2013
2075
2230
2388
2473
2448
2347
2241
2183
2198
2313
2461
2558
2525
2416
2273
2170
2160
2238
2375
2493
2497
2410
2277
2146
2093
2131
2266
2416
2480
2398
2239
2038
1903
1886
1986
2143
2239
2218
2118
1943
1825
1797
1873
2031
2175
2220
2155
2000
1839
1748
1785
1925
2087
2160
2112
1982
1853
1787
1798
1894
2045
2144
2109
1985
1835
1712
1697
1781
1923
2064
2113
2053
1920
1792
1717
1746
1869
2007
2081
2037
1921
1795
1728
1744
1870
2032
2147
2128
2000
1851
1737
1718
1804
1967
2109
2129
2067
1934
1808
1762
1826
1981
2151
2229
2187
2064
1920
1815
1814
1925
2081
2176
2160
2056
1914
1793
1759
1823
1953
2081
2108
2024
1882
1762
1697
1728
1843
2005
2091
2058
1923
1782
1680
1679
1766
1904
1998
1999
1889
1730
1600
1535
1566
1671
1783
1846
1871
1872
1930
2082
2310
2603
2855
2998
2987
2859
2672
2459
2266
2109
2009
1911
1751
1531
1328
1182
1157
1265
1474
1667
1763
1739
1652
1535
1513
1559
1693
1866
1973
1957
1845
1712
1633
1663
1776
1945
2074
2107
2043
1923
1792
1734
1786
1925
2071
2115
2046
1917
1792
1744
1794
1919
2064
2135
2113
2021
1911
1842
1872
1995
2155
2266
2289
2214
2096
1991
1955
2014
2177
2336
2383
2317
2181
2047
1987
2024
2154
2320
2429
2431
2352
2240
2155
2149
2241
2398
2515
2528
2437
2285
2155
2111
2147
2276
2420
2459
2374
2230
2081
2006
2037
2153
2279
2327
2273
2128
1958
1851
1853
1941
2091
2191
2178
2068
1923
1804
1759
1811
1954
2096
2135
2066
1909
1767
1707
1749
1883
2057
2133
2100
1968
1822
1708
1689
1776
1921
2031
2038
1941
1797
1674
1662
1747
1908
2061
2095
1989
1830
1683
1625
1684
1835
2005
2099
2069
1964
1830
1721
1711
1790
1931
2035
2029
1920
1782
1664
1643
1723
1881
2033
2096
2059
1937
1824
1771
1795
1879
1999
2058
2005
1897
1756
1666
1658
1749
1902
2001
1997
1895
1747
1631
1591
1641
1767
1887
1904
1811
1662
1511
1434
1455
1570
1711
1791
1762
1655
1519
1414
1406
1487
1634
1750
1746
1619
1424
1253
1186
1264
1481
1758
1986
2133
2192
2192
2201
2275
2427
2590
2633
2482
2161
1743
1386
1181
1145
1219
1297
1300
1234
1146
1074
1100
1245
1456
1630
1694
1647
1521
1424
1405
1471
1627
1779
1860
1823
1713
1593
1520
1520
1619
1773
1877
1883
1785
1633
1517
1493
1579
1740
1901
1984
1942
1823
1680
1610
1649
1791
1951
2038
2018
1925
1811
1726
1729
1841
2009
2135
2160
2087
1968
1872
1849
1918
2071
2213
2265
2215
2096
1981
1927
1981
2126
2286
2361
2323
2201
2067
1982
1989
2099
2258
2389
2405
2320
2187
2066
2023
2069
2175
2281
2315
2236
2100
1957
1873
1899
2014
2158
2231
2202
2085
1936
1829
1797
1863
1987
2097
2101
2000
1856
1738
1698
1754
1898
2035
2091
2020
1877
1739
1676
1700
1820
1968
2057
2011
1893
1760
1673
1674
1775
1917
2029
2047
1968
1828
1711
1665
1721
1856
1997
2065
2015
1877
1739
1666
1695
1830
1987
2077
2057
1941
1794
1699
1702
1798
1967
2091
2094
2005
1883
1782
1760
1817
1959
2111
2191
2155
2029
1910
1840
1849
1961
2100
2165
2103
1969
1827
1730
1725
1823
1999
2158
2179
2093
1933
1791
1727
1764
1900
2030
2074
2006
1887
1760
1692
1711
1840
2005
2102
2082
1973
1838
1731
1707
1771
1898
1999
1987
1870
1723
1616
1630
1793
2081
2398
2643
2737
2704
2625
2559
2559
2641
2692
2637
2383
2017
1658
1372
1227
1227
1356
1498
1573
1554
1483
1428
1431
1517
1699
1893
1991
1970
1867
1755
1712
1745
1873
2038
2146
2125
2002
1871
1779
1778
1877
2042
2177
2192
2111
1973
1859
1823
1891
2034
2179
2245
2199
2079
1939
1877
1917
2039
2192
2287
2271
2177
2043
1953
1963
2063
2214
2346
2362
2285
2157
2039
2017
2096
2254
2418
2499
2454
2340
2205
2134
2158
2279
2436
2547
2544
2449
2322
2237
2226
2296
2425
2532
2554
2471
2332
2207
2133
2150
2255
2399
2467
2407
2256
2095
1999
2012
2115
2239
2300
2253
2128
1968
1855
1824
1914
2078
2226
2272
2197
2074
1955
1901
1936
2058
2177
2223
2160
2015
1877
1783
1802
1911
2082
2195
2195
2096
1962
1870
1852
1927
2075
2197
2200
2103
1947
1837
1787
1837
1982
2131
2192
2159
2059
1924
1841
1858
1967
2122
2229
2222
2107
1955
1840
1822
1879
2017
2141
2160
2096
1969
1851
1803
1860
2021
2192
2282
2242
2128
1985
1903
1906
1999
2144
2246
2245
2142
1999
1875
1851
1925
2081
2207
2226
2139
1986
1849
1767
1791
1905
2039
2096
2046
1934
1801
1722
1722
1808
1965
2075
2058
1943
1800
1706
1680
1742
1861
1943
1941
1859
1759
1728
1810
2032
2352
2651
2820
2821
2714
2587
2487
2444
2411
2352
2229
2017
1754
1487
1284
1216
1279
1447
1631
1735
1733
1666
1587
1567
1633
1792
1973
2080
2047
1937
1810
1727
1739
1849
1999
2113
2112
2017
1875
1762
1737
1830
1994
2139
2176
2110
1977
1869
1825
1870
2000
2148
2215
2165
2035
1903
1826
1857
2000
2189
2314
2313
2215
2086
1978
1967
2047
2223
2383
2435
2383
2267
2160
2100
2131
2246
2393
2487
2470
2367
2243
2158
2147
2255
2416
2529
2518
2419
2291
2199
2189
2260
2397
2515
2546
2461
2306
2160
2085
2116
2240
2377
2429
2368
2228
2097
2002
1988
2058
2167
2235
2208
2096
1943
1837
1817
1877
2017
2131
2157
2091
1956
1840
1807
1843
1953
2092
2156
2107
1979
1840
1741
1715
1797
1951
2087
2110
2029
1899
1792
1760
1811
1924
2035
2070
1991
1862
1712
1648
1686
1822
2000
2107
2089
1965
1819
1708
1702
1808
1967
2066
2064
1980
1856
1747
1723
1775
1893
2016
2070
2015
1905
1792
1751
1815
1964
2113
2186
2145
2026
1911
1839
1847
1941
2096
2201
2192
2083
1935
1821
1792
1851
1973
2093
2122
2042
1907
1778
1717
1749
1866
2011
2094
2039
1906
1742
1631
1637
1744
1906
2026
2027
1926
1781
1659
1619
1664
1776
1882
1921
1843
1701
1523
1453
1535
1789
2107
2390
2544
2591
2559
2559
2631
2768
2912
2941
2729
2346
1929
1584
1373
1328
1409
1519
1573
1553
1467
1367
1329
1392
1557
1749
1869
1863
1789
1664
1579
1585
1690
1845
1966
1980
1890
1758
1641
1616
1702
1865
2011
2060
1986
1841
1713
1664
1705
1856
2028
2133
2114
2011
1884
1805
1801
1888
2059
2186
2193
2107
1963
1847
1823
1895
2064
2223
2287
2241
2128
1997
1941
2001
2154
2314
2400
2384
2288
2167
2084
2091
2187
2326
2442
2448
2370
2252
2159
2128
2201
2339
2464
2485
2405
2263
2128
2061
2080
2179
2304
2374
2331
2204
2064
1957
1947
2023
2158
2261
2247
2135
1969
1843
1799
1847
1979
2105
2141
2085
1947
1820
1745
1759
1859
1996
2078
2032
1914
1762
1648
1627
1722
1890
2010
2016
1920
1771
1633
1606
1681
1846
1996
2033
1962
1806
1648
1579
1615
1751
1920
2013
1986
1883
1755
1671
1680
1770
1906
2014
2012
1917
1765
1639
1605
1665
1811
1958
2014
1954
1829
1703
1637
1667
1799
1962
2063
2035
1920
1782
1701
1712
1810
1968
2096
2096
2004
1872
1735
1677
1723
1868
2002
2043
1979
1843
1712
1651
1680
1807
1977
2063
2011
1879
1712
1591
1594
1682
1833
1935
1943
1856
1718
1579
1519
1573
1714
1837
1862
1782
1627
1472
1395
1423
1579
1809
2030
2178
2256
2289
2320
2399
2526
2688
2796
2743
2513
2174
1793
1505
1371
1387
1456
1491
1434
1306
1186
1143
1227
1417
1634
1776
1799
1715
1578
1487
1504
1639
1817
1939
1959
1886
1754
1643
1610
1666
1806
1940
1993
1954
1857
1731
1663
1681
1801
1955
2058
2034
1926
1793
1702
1706
1807
1962
2082
2106
2032
1919
1835
1810
1887
2032
2176
2223
2155
2018
1897
1857
1901
2034
2195
2288
2272
2199
2091
2007
2010
2105
2259
2389
2433
2367
2243
2121
2063
2096
2213
2340
2395
2352
2247
2138
2043
2031
2128
2279
2365
2327
2201
2032
1925
1902
1968
2111
2212
2205
2101
1946
1813
1755
1812
1953
2086
2122
2037
1889
1739
1661
1685
1808
1964
2047
2017
1894
1763
1671
1665
1755
1910
2029
2047
1962
1819
1694
1662
1728
1871
2017
2081
2023
1872
1706
1607
1629
1764
1926
2032
2031
1929
1781
1671
1649
1725
1870
1987
2015
1943
1808
1681
1634
1680
1823
1984
2038
1983
1863
1744
1695
1729
1856
2010
2115
2103
2000
1840
1719
1692
1779
1941
2103
2155
2085
1943
1820
1746
1791
1927
2064
2112
2061
1927
1792
1723
1743
1853
2000
2098
2060
1932
1776
1674
1663
1744
1891
2018
2031
1936
1799
1685
1664
1731
1872
1996
2029
1956
1808
1647
1519
1503
1616
1793
1968
2087
2147
2189
2235
2330
2483
2671
2810
2832
2717
2483
2171
1872
1684
1631
1647
1629
1517
1374
1262
1237
1333
1520
1743
1883
1901
1815
1707
1658
1683
1794
1947
2071
2093
2009
1875
1759
1707
1763
1904
2064
2145
2112
1984
1855
1776
1794
1904
2059
2168
2169
2074
1936
1832
1798
1872
2034
2191
2240
2176
2062
1959
1918
1974
2127
2286
2352
2304
2181
2038
1961
2000
2155
2334
2450
2447
2355
2230
2139
2139
2227
2386
2527
2585
2512
2368
2233
2192
2255
2384
2512
2559
2511
2383
2240
2161
2181
2282
2406
2487
2464
2358
2224
2115
2070
2130
2258
2368
2367
2271
2121
1971
1904
1931
2045
2187
2246
2198
2070
1935
1849
1854
1949
2096
2177
2157
2037
1889
1787
1775
1851
2011
2143
2168
2084
1945
1810
1743
1776
1894
2038
2115
2083
1968
1842
1776
1782
1887
2032
2123
2094
1966
1811
1706
1672
1749
1904
2046
2096
2032
1917
1805
1743
1775
1890
2033
2123
2093
1968
1822
1728
1732
1829
1971
2073
2064
1957
1835
1746
1746
1837
1991
2157
2224
2159
2009
1866
1794
1827
1963
2125
2198
2160
2032
1902
1807
1802
1903
2061
2157
2133
2015
1852
1722
1680
1743
1881
2016
2054
1978
1840
1710
1643
1679
1803
1943
2023
1998
1879
1743
1645
1639
1725
1839
1909
1882
1781
1645
1569
1622
1839
2153
2462
2669
2714
2646
2559
2539
2605
2687
2706
2559
2261
1895
1553
1319
1233
1296
1458
1609
1658
1611
1517
1447
1472
1609
1798
1926
1939
1856
1744
1629
1586
1636
1775
1933
2017
1991
1883
1755
1663
1674
1776
1933
2065
2101
2023
1888
1776
1733
1801
1951
2096
2154
2124
2031
1935
1894
1938
2075
2221
2275
2223
2096
1966
1886
1902
2005
2182
2322
2345
2257
2112
1985
1957
2034
2210
2384
2466
2433
2323
2186
2111
2143
2274
2433
2530
2513
2412
2256
2132
2113
2206
2366
2489
2494
2384
2236
2119
2082
2143
2289
2418
2445
2359
2201
2035
1935
1937
2047
2197
2278
2229
2096
1943
1851
1859
1958
2110
2183
2133
1996
1840
1730
1713
1798
1963
2106
2147
2071
1931
1783
1709
1743
1859
2002
2090
2054
1934
1785
1693
1690
1787
1933
2067
2087
2000
1865
1754
1715
1771
1897
2030
2082
2006
1874
1744
1670
1692
1799
1953
2047
2037
1935
1793
1694
1686
1776
1939
2074
2087
2003
1883
1760
1711
1759
1910
2060
2118
2068
1951
1841
1798
1830
1939
2096
2167
2126
1990
1841
1733
1728
1824
1980
2111
2131
2033
1876
1739
1680
1714
1842
1984
2031
1963
1822
1674
1584
1598
1712
1873
1979
1959
1840
1693
1591
1591
1691
1841
1953
1934
1797
1601
1439
1387
1455
1664
1934
2161
2301
2354
2370
2389
2472
2643
2843
2929
2821
2545
2162
1793
1553
1458
1475
1520
1493
1405
1306
1237
1249
1355
1535
1731
1818
1775
1660
1567
1523
1595
1730
1919
2011
1978
1856
1709
1600
1613
1730
1902
2014
2007
1904
1756
1642
1602
1668
1839
2017
2111
2077
1962
1838
1745
1762
1874
2025
2134
2135
2054
1936
1860
1859
1945
2075
2192
2208
2128
1989
1875
1856
1952
2127
2309
2405
2357
2227
2112
2066
2097
2209
2354
2434
2419
2327
2207
2117
2115
2195
2337
2451
2470
2387
2258
2143
2096
2146
2276
2401
2432
2336
2171
2006
1918
1936
2061
2211
2303
2263
2119
1941
1809
1763
1814
1949
2064
2065
1984
1849
1730
1687
1728
1863
1994
2054
2002
1882
1734
1651
1653
1747
1904
2026
2032
1950
1830
1715
1663
1719
1855
1970
1998
1922
1807
1696
1654
1693
1810
1947
2010
1974
1850
1699
1616
1636
1745
1890
1986
1968
1865
1741
1648
1648
1733
1887
2014
2028
1931
1784
1662
1611
1659
1807
1951
2019
1984
1887
1781
1715
1743
1867
1998
2110
2117
2015
1859
1744
1730
1822
1968
2096
2105
2019
1879
1747
1689
1726
1843
1981
2047
2015
1881
1725
1625
1642
1757
1906
2014
1991
1872
1727
1616
1598
1671
1825
1967
1999
1913
1762
1609
1520
1535
1639
1761
1818
1794
1733
1719
1815
2037
2346
2654
2849
2895
2810
2650
2480
2329
2187
2053
1920
1759
1535
1314
1134
1040
1088
1262
1463
1607
1633
1578
1481
1440
1489
1633
1809
1947
1968
1899
1765
1635
1602
1678
1826
1967
2005
1957
1847
1739
1693
1734
1851
1985
2058
2007
1895
1766
1697
1722
1840
1993
2106
2106
2002
1881
1806
1804
1872
2022
2151
2186
2128
2014
1909
1872
1927
2069
2217
2290
2254
2155
2035
1970
1986
2108
2287
2419
2434
2330
2191
2079
2047
2139
2312
2479
2511
2426
2266
2096
2007
2064
2211
2381
2452
2414
2288
2154
2061
2032
2107
2223
2309
2290
2165
1999
1872
1835
1887
2018
2147
2199
2127
1971
1809
1734
1773
1909
2067
2129
2074
1935
1791
1702
1715
1819
1984
2112
2113
2003
1861
1744
1716
1779
1931
2077
2117
2033
1886
1744
1679
1720
1846
1989
2061
2007
1892
1751
1659
1669
1778
1939
2058
2043
1943
1811
1725
1713
1803
1947
2071
2090
2000
1869
1745
1686
1735
1873
2033
2119
2080
1950
1809
1728
1745
1856
2046
2183
2194
2096
1939
1808
1765
1831
1971
2103
2128
2046
1902
1760
1695
1731
1871
2023
2101
2054
1929
1795
1701
1696
1791
1935
2047
2054
1958
1810
1695
1665
1730
1895
2032
2064
1984
1835
1692
1630
1659
1773
1889
1927
1845
1693
1553
1484
1563
1804
2149
2445
2610
2646
2594
2510
2477
2514
2589
2579
2391
2060
1684
1374
1184
1134
1236
1408
1535
1571
1523
1462
1427
1465
1585
1782
1936
1974
1909
1785
1665
1638
1728
1901
2069
2119
2044
1904
1777
1713
1750
1878
2039
2131
2100
1982
1856
1786
1777
1867
2009
2119
2121
2039
1926
1839
1815
1892
2046
2211
2279
2235
2110
1975
1909
1941
2066
2238
2337
2321
2224
2098
2003
2003
2119
2288
2425
2459
2388
2267
2145
2107
2174
2333
2487
2544
2486
2365
2245
2193
2219
2339
2475
2541
2480
2340
2190
2095
2080
2159
2302
2415
2406
2299
2153
2021
1964
1999
2125
2257
2298
2207
2035
1882
1808
1840
1951
2125
2216
2182
2059
1904
1788
1767
1853
1997
2112
2128
2038
1893
1793
1745
1808
1953
2098
2147
2090
1962
1830
1746
1753
1845
1991
2112
2096
1970
1837
1761
1765
1838
1984
2115
2123
2026
1889
1762
1719
1788
1936
2087
2132
2067
1935
1803
1737
1757
1862
2013
2110
2094
1981
1840
1739
1735
1841
2002
2131
2160
2089
1955
1846
1811
1861
1987
2128
2196
2160
2032
1909
1839
1851
1970
2139
2240
2208
2081
1920
1820
1809
1889
2023
2126
2121
2019
1869
1743
1696
1754
1904
2031
2064
1991
1856
1729
1661
1694
1826
1963
2043
2013
1898
1747
1632
1596
1627
1728
1817
1829
1794
1773
1808
1954
2213
2528
2800
2935
2935
2821
2658
2482
2333
2220
2118
1978
1789
1535
1319
1168
1158
1287
1486
1671
1746
1712
1637
1554
1529
1607
1778
1951
2032
1979
1849
1712
1627
1653
1787
1949
2063
2047
1934
1790
1674
1639
1713
1870
2030
2089
2022
1897
1766
1717
1775
1923
2086
2160
2128
2017
1903
1819
1835
1942
2110
2223
2240
2177
2066
1980
1969
2043
2181
2301
2333
2269
2141
2045
2011
2062
2210
2380
2451
2405
2295
2179
2111
2127
2239
2386
2500
2503
2415
2282
2176
2148
2207
2337
2444
2449
2366
2225
2108
2059
2095
2207
2335
2371
2303
2167
2010
1920
1923
2020
2173
2261
2227
2096
1933
1809
1776
1845
1999
2131
2159
2083
1934
1792
1719
1749
1898
2064
2127
2074
1947
1809
1734
1763
1871
1999
2096
2064
1946
1814
1715
1712
1811
1968
2091
2103
2027
1895
1749
1689
1733
1883
2034
2112
2065
1946
1807
1727
1744
1843
1978
2064
2047
1947
1815
1727
1728
1827
1995
2144
2176
2075
1906
1759
1703
1751
1915
2099
2191
2146
2020
1893
1811
1854
1993
2160
2243
2208
2083
1915
1780
1744
1835
2006
2160
2186
2100
1963
1823
1759
1789
1900
2053
2148
2103
1958
1793
1680
1664
1749
1915
2026
2029
1934
1785
1659
1625
1696
1851
1984
1994
1890
1729
1575
1481
1483
1626
1827
1997
2101
2167
2242
2351
2503
2695
2899
3049
3051
2901
2638
2303
2001
1808
1733
1709
1635
1520
1370
1251
1229
1333
1532
1731
1834
1808
1691
1582
1520
1555
1677
1856
1995
2014
1927
1790
1680
1663
1731
1879
2023
2064
1980
1855
1754
1712
1758
1883
2025
2105
2071
1968
1845
1779
1803
1919
2096
2239
2251
2151
2014
1902
1861
1918
2065
2208
2266
2211
2106
1991
1942
1984
2115
2282
2384
2383
2311
2209
2135
2160
2279
2438
2554
2557
2467
2343
2225
2180
2239
2379
2519
2555
2482
2357
2225
2158
2191
2315
2450
2512
2461
2343
2192
2076
2043
2113
2253
2354
2340
2218
2064
1911
1856
1904
2035
2164
2215
2150
2019
1891
1810
1829
1941
2080
2154
2118
1989
1839
1721
1712
1808
1949
2064
2067
1978
1831
1719
1710
1789
1922
2047
2079
1998
1856
