1665
1632
1722
1881
2054
2129
2064
1891
1743
1653
1697
1841
2005
2114
2073
1917
1723
1577
1557
1659
1835
1983
2022
1931
1776
1639
1605
1694
1859
2033
2096
2018
1851
1673
1581
1616
1756
1920
2032
2032
1921
1761
1648
1675
1831
2047
2231
2291
2229
2075
1915
1834
1878
2000
2129
2151
2005
1771
1513
1333
1327
1468
1623
1751
1773
1689
1552
1443
1465
1600
1796
1957
1998
1907
1733
1575
1520
1605
1773
1936
2006
1950
1792
1627
1527
1591
1763
1953
2070
2047
1920
1744
1609
1596
1697
1868
2015
2045
1946
1762
1599
1527
1603
1765
1936
2025
1987
1850
1678
1580
1605
1749
1939
2073
2055
1919
1744
1616
1622
1744
1910
2065
2103
1991
1815
1661
1604
1695
1860
2032
2128
2085
1936
1772
1675
1705
1846
2023
2157
2137
1995
1801
1648
1614
1711
1901
2086
2128
2041
1866
1697
1632
1695
1851
2007
2096
2033
1882
1695
1575
1575
1689
1856
1968
1953
1823
1643
1489
1459
1535
1716
1881
1938
1857
1671
1494
1415
1463
1613
1781
1857
1812
1675
1506
1408
1447
1605
1771
1887
1875
1747
1573
1427
1407
1499
1669
1814
1851
1759
1589
1426
1367
1434
1609
1779
1873
1806
1635
1440
1337
1371
1535
1747
1887
1885
1766
1595
1440
1415
1511
1679
1818
1862
1785
1623
1471
1409
1485
1645
1808
1887
1831
1670
1482
1366
1386
1517
1698
1835
1843
1738
1561
1427
1418
1523
1705
1855
1904
1821
1657
1488
1421
1486
1642
1818
1934
1910
1777
1614
1502
1511
1633
1802
1930
1935
1813
1630
1482
1447
1535
1707
1842
1882
1793
1619
1459
1385
1431
1602
1774
1872
1821
1666
1488
1392
1407
1530
1710
1840
1845
1734
1565
1417
1390
1495
1695
1884
1967
1906
1769
1629
1585
1680
1878
2097
2239
2253
2149
1995
1879
1872
1971
2125
2222
2179
2010
1769
1535
1424
1440
1559
1691
1739
1666
1514
1363
1310
1393
1583
1791
1922
1904
1779
1619
1520
1535
1686
1869
2003
2007
1875
1697
1535
1518
1619
1818
1985
2057
1982
1815
1638
1553
1610
1767
1948
2058
2016
1872
1706
1599
1598
1722
1914
2069
2105
2007
1821
1658
1614
1705
1882
2047
2121
2039
1877
1709
1646
1707
1866
2047
2175
2159
2003
1820
1687
1683
1810
2010
2130
2148
2054
1899
1773
1742
1845
2026
2193
2261
2179
2028
1845
1751
1794
1936
2112
2221
2191
2047
1865
1728
1729
1840
2009
2141
2147
2031
1842
1674
1618
1707
1871
2025
2090
2003
1840
1647
1525
1567
1726
1911
2018
1984
1845
1658
1516
1507
1618
1807
1959
1990
1898
1727
1554
1485
1563
1731
1905
1995
1936
1751
1580
1482
1530
1687
1867
2000
1986
1866
1682
1555
1535
1675
1869
2013
2061
1948
1779
1616
1562
1653
1834
1991
2064
1991
1830
1650
1554
1594
1749
1939
2067
2064
1949
1783
1663
1651
1762
1941
2080
2105
1997
1814
1648
1582
1660
1835
2020
2112
2067
1917
1743
1636
1682
1843
2010
2127
2101
1977
1808
1679
1682
1823
2001
2160
2210
2127
1972
1795
1733
1801
1957
2128
2209
2160
2003
1843
1747
1783
1925
2112
2243
2243
2139
1971
1840
1803
1897
2063
2197
2221
2107
1930
1767
1711
1787
1939
2106
2187
2143
2009
1837
1738
1774
1904
2065
2160
2137
2018
1862
1745
1742
1840
2030
2194
2253
2195
2071
1955
1937
2058
2253
2453
2559
2512
2343
2135
1979
1961
2045
2166
2222
2132
1942
1714
1525
1487
1603
1809
2011
2103
2045
1900
1744
1687
1763
1929
2113
2217
2170
2032
1877
1786
1819
1968
2163
2290
2277
2155
1968
1833
1819
1937
2126
2282
2325
2237
2065
1894
1814
1872
2038
2227
2327
2288
2153
2001
1879
1895
2006
2174
2303
2304
2186
2017
1893
1882
2000
2199
2375
2431
2365
2199
2031
1953
2021
2186
2357
2462
2416
2275
2095
1971
1986
2119
2304
2448
2462
2349
2175
2032
2009
2111
2282
2432
2477
2389
2234
2080
1991
2047
2202
2381
2471
2416
2244
2059
1933
1939
2064
2226
2346
2325
2195
1996
1856
1823
1905
2064
2231
2289
2209
2034
1856
1759
1809
1950
2122
2225
2179
2032
1855
1729
1738
1856
2030
2161
2178
2081
1905
1760
1725
1819
1981
2133
2180
2077
1901
1729
1648
1715
1884
2074
2189
2160
2007
1824
1706
1712
1837
1999
2154
2163
2061
1882
1733
1706
1802
1983
2148
2203
2129
1968
1799
1723
1769
1904
2067
2181
2155
2006
1827
1703
1707
1824
2000
2156
2179
2066
1869
1711
1668
1749
1920
2093
2167
2099
1938
1766
1676
1728
1879
2047
2142
2101
1961
1786
1677
1703
1855
2030
2161
2182
2076
1901
1730
1695
1783
1949
2094
2133
2063
1907
1755
1677
1730
1890
2069
2176
2149
1999
1811
1682
1691
1813
1985
2128
2139
2017
1842
1695
1651
1726
1893
2058
2122
2065
1910
1754
1675
1723
1859
2019
2128
2094
1949
1777
1654
1648
1776
1966
2113
2157
2075
1939
1818
1802
1925
2131
2338
2446
2397
2251
2083
1947
1932
1994
2099
2143
2046
1839
1589
1406
1375
1505
1714
1901
1959
1884
1741
1616
1600
1715
1907
2096
2181
2133
1989
1825
1734
1781
1926
2113
2229
2209
2077
1890
1776
1776
1893
2071
2219
2231
2124
1947
1792
1744
1822
1999
2173
2257
2195
2045
1882
1792
1844
1989
2159
2273
2253
2119
1930
1789
1779
1909
2096
2241
2270
2185
2013
1853
1793
1866
2026
2195
2283
2227
2079
1909
1834
1888
2041
2237
2341
2306
2161
1964
1819
1792
1904
2111
2266
2307
2224
2035
1855
1775
1833
1978
2146
2230
2176
2015
1836
1727
1747
1861
2046
2160
2128
1984
1819
1669
1645
1730
1906
2035
2054
1953
1782
1623
1585
1665
1815
1975
2021
1931
1759
1566
1453
1474
1625
1809
1935
1934
1807
1623
1472
1453
1553
1726
1872
1920
1836
1664
1491
1424
1495
1659
1809
1890
1846
1698
1519
1413
1456
1604
1779
1898
1893
1759
1591
1446
1421
1532
1703
1871
1911
1823
1667
1520
1472
1535
1691
1843
1922
1873
1724
1535
1415
1421
1535
1728
1881
1901
1786
1611
1462
1437
1535
1727
1879
1927
1845
1685
1523
1456
1523
1691
1874
1974
1930
1780
1598
1472
1491
1633
1809
1938
1935
1825
1648
1497
1476
1603
1790
1938
1995
1932
1763
1597
1519
1584
1731
1900
1983
1949
1813
1648
1535
1555
1689
1872
2001
2012
1898
1728
1573
1535
1630
1798
1938
1987
1891
1715
1535
1471
1531
1701
1879
1983
1942
1789
1606
1482
1491
1634
1823
1966
1987
1882
1698
1535
1489
1574
1729
1881
1964
1934
1834
1736
1724
1837
2027
2245
2379
2364
2235
2064
1917
1889
1983
2126
2179
2095
1859
1593
1360
1280
1353
1513
1714
1807
1758
1628
1494
1459
1558
1748
1956
2094
2066
1936
1777
1677
1708
1840
2021
2160
2176
2069
1898
1759
1729
1829
1989
2148
2211
2138
1978
1811
1741
1798
1947
2133
2245
2222
2102
1931
1821
1840
1962
2141
2263
2267
2165
1991
1843
1809
1902
2085
2245
2305
2240
2086
1926
1842
1904
2064
2240
2348
2326
2196
2027
1921
1940
2079
2257
2401
2416
2309
2128
1991
1975
2087
2265
2439
2498
2430
2256
2073
1968
2013
2162
2336
2432
2405
2272
2100
1969
1968
2076
2239
2371
2383
2259
2084
1921
1858
1925
2083
2233
2300
2215
2035
1841
1742
1775
1923
2091
2202
2181
2046
1874
1747
1749
1875
2064
2208
2224
2114
1920
1763
1711
1785
1953
2127
2192
2125
1965
1786
1690
1735
1889
2075
2183
2157
2020
1826
1695
1694
1826
2000
2138
2160
2053
1872
1724
1690
1793
1979
2157
2221
2147
1977
1802
1716
1775
1930
2114
2221
2191
2043
1859
1744
1749
1877
2063
2215
2243
2160
1986
1834
1795
1877
2047
2213
2281
2205
2043
1853
1774
1836
1986
2171
2293
2288
2163
1985
1845
1827
1936
2121
2271
2306
2213
2053
1890
1829
1917
2090
2253
2338
2298
2128
1932
1826
1863
2004
2193
2316
2306
2192
2026
1903
1905
2022
2221
2371
2413
2320
2163
1983
1913
1970
2128
2285
2343
2259
2095
1895
1793
1821
1955
2128
2240
2231
2105
1921
1795
1798
1933
2118
2269
2307
2206
2026
1870
1808
1859
2003
2165
2253
2209
2067
1915
1830
1891
2083
2293
2439
2462
2369
2227
2110
2110
2219
2365
2471
2450
2300
2067
1831
1689
1664
1731
1840
1888
1831
1687
1527
1419
1439
1583
1748
1862
1843
1717
1569
1418
1407
1499
1680
1840
1872
1779
1610
1451
1393
1472
1646
1815
1910
1878
1739
1569
1461
1490
1642
1807
1906
1902
1795
1657
1535
1523
1632
1813
1968
2007
1919
1747
1585
1515
1595
1761
1949
2062
2022
1890
1716
1604
1631
1777
1975
2125
2131
2015
1855
1737
1730
1841
2024
2180
2223
2151
1997
1843
1785
1853
1998
2192
2296
2269
2137
1953
1857
1884
2026
2212
2323
2314
2184
1999
1844
1813
1916
2082
2245
2289
2187
1998
1820
1740
1799
1950
2117
2187
2128
1975
1802
1690
1712
1824
1985
2105
2091
1955
1761
1604
1571
1674
1856
2019
2070
1983
1808
1637
1561
1616
1773
1950
2056
2000
1851
1663
1529
1535
1709
1882
2021
2031
1911
1746
1623
1616
1728
1889
2057
2093
2002
1842
1669
1615
1680
1825
1994
2096
2047
1905
1746
1634
1645
1773
1936
2066
2069
1949
1779
1649
1637
1755
1938
2110
2160
2080
1905
1733
1659
1719
1879
2061
2150
2099
1951
1791
1683
1712
1840
2029
2176
2202
2099
1919
1767
1742
1837
2005
2161
2205
2106
1932
1770
1700
1763
1930
2120
2230
2207
2080
1902
1790
1799
1921
2106
2247
2263
2160
1979
1839
1801
1887
2068
2225
2286
2224
2081
1923
1851
1902
2032
2191
2282
2256
2128
1953
1830
1830
1943
2124
2256
2275
2173
1989
1842
1805
1881
2038
2192
2250
2170
2010
1856
1792
1853
1988
2132
2222
2190
2045
1882
1775
1794
1939
2147
2306
2347
2288
2171
2080
2086
2224
2429
2611
2669
2551
2343
2135
2016
2010
2097
2170
2183
2064
1869
1649
1502
1521
1694
1915
2098
2141
2046
1879
1742
1710
1806
1974
2166
2274
2240
2107
1936
1855
1907
2062
2245
2371
2352
2190
1991
1872
1897
2032
2213
2334
2340
2217
2045
1914
1883
1979
2163
2336
2411
2342
2157
1958
1847
1885
2035
2223
2336
2329
2198
2031
1919
1931
2061
2235
2379
2411
2318
2150
1993
1947
2031
2201
2359
2435
2394
2273
2128
2071
2128
2256
2422
2533
2534
2417
2234
2106
2118
2240
2415
2559
2599
2478
2284
2094
2015
2085
2253
2416
2487
2413
2249
2067
1969
2007
2147
2315
2416
2384
2248
2066
1934
1921
2025
2192
2320
2331
2211
2022
1840
1784
1863
2033
2203
2277
2210
2043
1856
1762
1793
1930
2111
2224
2205
2065
1867
1731
1716
1826
2003
2163
2223
2155
1975
1808
1730
1776
1921
2106
2186
2127
1955
1776
1681
1712
1856
2031
2160
2166
2038
1866
1738
1740
1851
2015
2159
2189
2096
1936
1786
1736
1810
1977
2157
2238
2179
2032
1867
1767
1789
1933
2095
2215
2203
2068
1871
1760
1760
1874
2067
2222
2241
2122
1931
1756
1687
1770
1935
2119
2211
2163
2003
1820
1703
1747
1896
2082
2209
2202
2083
1898
1755
1751
1874
2060
2203
2243
2166
2003
1843
1779
1854
2016
2187
2256
2203
2061
1902
1791
1807
1941
2128
2261
2260
2128
1934
1775
1727
1827
1999
2157
2171
2069
1886
1706
1629
1715
1879
2087
2177
2126
1965
1787
1686
1722
1862
2053
2186
2187
2068
1885
1730
1699
1817
2014
2208
2295
2247
2126
1995
1958
2057
2245
2442
2543
2469
2260
2011
1841
1808
1890
2006
2042
1957
1776
1577
1409
1398
1530
1744
1943
2030
1974
1837
1699
1639
1718
1904
2097
2194
2151
2002
1823
1714
1738
1877
2080
2219
2224
2107
1910
1760
1743
1845
2015
2173
2221
2139
1978
1808
1739
1801
1955
2127
2205
2161
2019
1855
1755
1799
1966
2167
2288
2273
2141
1954
1795
1751
1840
2019
2182
2246
2179
2021
1871
1807
1864
2042
2225
2326
2294
2152
1979
1867
1872
2003
2224
2397
2413
2301
2135
1978
1938
2033
2210
2363
2416
2322
2156
1981
1903
1955
2107
2275
2369
2322
2172
1981
1863
1877
2006
2180
2295
2290
2162
1955
1781
1735
1840
2002
2158
2193
2101
1918
1749
1670
1712
1869
2014
2111
2071
1923
1737
1610
1616
1746
1934
2081
2091
1979
1805
1653
1620
1712
1879
2055
2116
2021
1851
1687
1586
1634
1801
2003
2122
2078
1925
1743
1619
1622
1746
1931
2079
2087
1963
1779
1623
1583
1676
1863
2044
2127
2064
1901
1725
1617
1654
1808
1993
2103
2066
1895
1732
1607
1613
1741
1931
2081
2091
1967
1782
1627
1591
1693
1877
2053
2113
2032
1867
1685
1595
1648
1811
1995
2111
2079
1926
1744
1614
1618
1751
1943
2096
2118
2007
1840
1698
1664
1730
1872
2032
2122
2079
1937
1773
1698
1762
1917
2095
2192
2145
1989
1786
1635
1625
1725
1919
2066
2089
1974
1772
1622
1584
1683
1863
2043
2129
2047
1872
1686
1596
1616
1753
1925
2032
2003
1863
1694
1583
1584
1706
1872
1988
1999
1885
1709
1559
1535
1661
1863
2062
2155
2111
1929
1713
1574
1535
1627
1739
1774
1664
1446
1202
1035
1005
1127
1339
1516
1568
1477
1328
1178
1155
1287
1493
1711
1802
1759
1621
1463
1365
1399
1535
1714
1827
1818
1695
1517
1403
1405
1535
1730
1882
1910
1813
1645
1477
1427
1514
1695
1871
1953
1898
1744
1575
1472
1513
1670
1863
1988
1991
1872
1707
1574
1567
1682
1866
2015
2054
1957
1799
1648
1613
1699
1853
2033
2133
2097
1967
1793
1718
1759
1908
2077
2199
2185
2059
1884
1759
1755
1872
2044
2186
2224
2127
1937
1776
1716
1794
1969
2154
2241
2187
2025
1842
1737
1777
1919
2094
2209
2177
2031
1838
1690
1671
1791
1975
2124
2141
2031
1854
1680
1600
1655
1802
1968
2065
2019
1865
1681
1568
1600
1741
1917
2042
2037
1918
1759
1620
1613
1721
1909
2054
2066
1951
1763
1588
1520
1595
1767
1949
2047
2010
1871
1701
1597
1625
1760
1941
2071
2054
1917
1737
1597
1583
1694
1893
2065
2118
2033
1859
1686
1617
1692
1872
2039
2145
2102
1939
1747
1643
1680
1840
2035
2178
2177
2054
1872
1735
1719
1814
1983
2138
2181
2097
1936
1774
1682
1734
1898
2073
2166
2126
1968
1781
1670
1706
1859
2058
2192
2201
2087
1919
1789
1766
1863
2038
2207
2253
2161
1979
1808
1744
1829
2000
2177
2278
2237
2094
1913
1808
1837
1968
2131
2240
2226
2095
1910
1744
1712
1813
1990
2153
2207
2139
1984
1839
1776
1843
2001
2164
2246
2188
2039
1861
1743
1750
1878
2065
2210
2230
2147
2017
1935
1968
2128
2352
2554
2651
2597
2421
2223
2087
2083
2177
2279
2295
2175
1943
1694
1530
1521
1662
1857
2027
2071
1989
1840
1734
1744
1871
2087
2271
2320
2226
2057
1882
1808
1889
2045
2243
2337
2295
2153
1968
1840
1859
2000
2197
2343
2352
2240
2061
1891
1847
1942
2119
2282
2350
2288
2128
1953
1878
1934
2095
2267
2372
2349
2211
2030
1918
1941
2094
2284
2419
2432
2317
2124
1969
1952
2059
2242
2411
2472
2393
2236
2082
2005
2071
2224
2403
2522
2501
2366
2187
2070
2095
2224
2403
2541
2547
2432
2256
2099
2055
2146
2314
2453
2515
2448
2289
2127
2032
2064
2197
2368
2470
2439
2304
2126
1981
1947
2037
2208
2329
2327
2221
2041
1894
1846
1929
2111
2270
2314
2219
2033
1851
1757
1812
1961
2130
2229
2186
2031
1853
1733
1744
1876
2075
2224
2246
2139
1966
1807
1744
1815
1983
2151
2224
2160
2003
1843
1749
1798
1943
2125
2242
2205
2047
1844
1714
1727
1858
2062
2182
2203
2101
1936
1795
1759
1842
2007
2192
2271
2201
2032
1851
1749
1791
1949
2142
2257
2241
2101
1906
1757
1759
1885
2071
2222
2238
2139
1962
1808
1749
1829
2014
2192
2270
2197
2032
1868
1789
1842
2000
2186
2293
2272
2130
1939
1791
1783
1901
2096
2255
2288
2191
2011
1852
1802
1886
2057
2229
2308
2250
2103
1929
1839
1887
2042
2210
2317
2285
2144
1953
1808
1783
1883
2053
2202
2234
2143
1971
1818
1778
1875
2046
2202
2256
2186
2021
1842
1736
1761
1893
2067
2187
2171
2054
1875
1766
1778
1910
2111
2257
2308
2254
2137
2027
2021
2139
2332
2518
2614
2535
2338
2118
1963
1936
2011
2113
2148
2059
1857
1630
1467
1456
1589
1795
1970
2032
1972
1840
1706
1676
1778
1968
2160
2255
2210
2057
1887
1792
1823
1959
2134
2256
2256
2136
1959
1833
1827
1937
2127
2286
2322
2235
2064
1905
1861
1937
2107
2274
2350
2265
2101
1925
1839
1867
2000
2187
2320
2320
2202
2017
1873
1852
1968
2164
2338
2403
2320
2151
1985
1927
2004
2182
2352
2447
2389
2252
2079
1962
1985
2141
2332
2466
2463
2341
2166
2041
2034
2160
2357
2533
2559
2462
2274
2087
1999
2064
2219
2373
2449
2401
2244
2072
1965
1989
2137
2315
2416
2384
2234
2033
1875
1839
1932
2096
2239
2277
2187
2009
1824
1744
1803
1959
2132
2214
2161
2007
1840
1717
1728
1838
2000
2155
2176
2054
1856
1695
1668
1775
1959
2127
2166
2047
1847
1659
1587
1653
1839
2010
2114
2079
1930
1758
1652
1679
1824
2007
2139
2135
2003
1817
1666
1644
1754
1935
2099
2158
2079
1904
1728
1661
1733
1898
2077
2170
2130
1981
1788
1661
1677
1811
1991
2130
2132
2005
1841
1697
1665
1757
1936
2095
2143
2064
1885
1707
1627
1687
1841
2027
2123
2067
1907
1723
1606
1622
1757
1937
2083
2105
2001
1838
1699
1680
1781
1962
2112
2160
2084
1919
1764
1690
1749
1919
2107
2187
2130
1970
1806
1703
1744
1893
2080
2209
2202
2079
1904
1765
1731
1825
1994
2149
2190
2106
1932
1750
1665
1702
1846
2026
2124
2084
1935
1738
1611
1625
1763
1959
2091
2110
2001
1834
1693
1665
1766
1930
2083
2133
2043
1871
1690
1610
1665
1840
2046
2179
2191
2091
1964
1917
1983
2147
2357
2520
2543
2399
2179
1978
1879
1902
1982
2063
2018
1838
1592
1377
1287
1357
1555
1789
1936
1958
1855
1698
1593
1629
1783
1981
2128
2153
2055
1872
1714
1665
1759
1935
2110
2176
2103
1937
1769
1692
1753
1909
2081
2195
2170
2028
1856
1741
1750
1881
2079
2227
2250
2145
1962
1804
1742
1817
1993
2171
2241
2186
2027
1854
1774
1838
1990
2174
2283
2245
2115
1955
1853
1884
2018
2207
2358
2383
2271
2102
1961
1933
2023
2195
2352
2416
2358
2224
2063
1974
2022
2182
2368
2476
2434
2294
2103
1952
1923
2030
2213
2363
2385
2298
2130
1987
1938
2039
2212
2353
2400
2310
2138
1935
1815
1846
1990
2137
2223
2179
2029
1839
1710
1712
1847
2037
2187
2198
2086
1891
1728
1690
1776
1933
2090
2148
2071
1887
1706
1616
1663
1808
1987
2100
2068
1936
1763
1646
1642
1756
1936
2080
2111
2017
1849
1699
1650
1737
1906
2080
2154
2097
1945
1776
1677
1714
1854
2027
2145
2142
2035
1850
1727
1713
1815
1975
2129
2160
2067
1893
1727
1665
1745
1911
2079
2151
2096
1951
1787
1687
1733
1876
2064
2182
2164
2033
1851
1718
1719
1839
2011
2158
2183
2093
1914
1755
1719
1823
1995
2160
2225
2160
1995
1818
1718
1751
1904
2093
2206
2187
2043
1879
1761
1727
1836
2003
2181
2239
2160
1999
1839
1780
1861
2032
2207
2288
2235
2077
1890
1791
1831
1983
2181
2295
2282
2155
1982
1854
1841
1957
2147
2303
2345
2235
2047
1872
1808
1871
2025
2191
2247
2178
2023
1851
1761
1794
1925
2096
2210
2206
2090
1911
1787
1777
1895
2075
2215
2250
2165
1986
1824
1767
1835
1980
2143
2224
2176
2032
1898
1846
1925
2128
2379
2559
2615
2522
2366
2207
2160
2242
2384
2480
2445
2266
1987
1705
1535
1561
1703
1883
1989
1967
1845
1707
1627
1673
1838
2022
2176
2193
2121
1975
1859
1845
1962
2141
2281
2289
2193
2019
1869
1808
1887
2034
2206
2298
2262
2119
1942
1842
1890
2034
2224
2373
2382
2263
2085
1935
1904
1998
2161
2308
2368
2293
2122
1934
1855
1938
2128
2304
2407
2373
2233
2064
1955
1973
2121
2305
2448
2455
2345
2177
2047
2037
2145
2325
2495
2546
2466
2303
2143
2064
2128
2275
2451
2555
2514
2384
2221
2123
2145
2272
2438
2544
2519
2384
2189
2038
2015
2115
2287
2438
2480
2394
2214
2034
1952
2006
2164
2325
2404
2352
2194
2005
1877
1890
2014
2182
2304
2299
2169
1968
1794
1757
1855
2025
2191
2247
2167
1995
1823
1743
1793
1935
2107
2195
2160
2021
1855
1737
1744
1891
2081
2211
2219
2089
1906
1746
1712
1812
1979
2160
2215
2147
1985
1808
1717
1790
1955
2127
2218
2179
2026
1840
1712
1742
1876
2066
2213
2219
2095
1897
1744
1717
1825
2009
2186
2240
2159
1989
1823
1747
1802
1938
2112
2225
2214
2091
1920
1793
1802
1931
2118
2253
2250
2137
1965
1821
1801
1899
2087
2237
2284
2192
2023
1839
1750
1799
1952
2128
2231
2215
2096
1915
1789
1799
1933
2119
2250
2251
2134
1963
1812
1783
1882
2063
2228
2289
2224
2065
1895
1817
1883
2047
2238
2349
2318
2177
1991
1867
1869
1998
2185
2327
2339
2227
2032
1873
1825
1901
2055
2197
2266
2192
2017
1831
1747
1819
1986
2128
2225
2210
2085
1919
1790
1790
1911
2096
2233
2242
2131
1951
1801
1757
1839
2010
2193
2280
2240
2122
1990
1938
2033
2253
2467
2613
2611
2481
2283
2117
2067
2155
2275
2352
2288
2097
1834
1602
1506
1573
1762
1968
2067
2023
1883
1728
1648
1697
1857
2063
2193
2192
2069
1910
1803
1818
1943
2126
2270
2293
2180
1993
1825
1779
1879
2066
2249
2335
2271
2110
1921
1830
1877
2022
2209
2322
2304
2177
1998
1873
1885
2001
2190
2329
2353
2257
2101
1945
1906
2004
2182
2355
2425
2349
2173
1983
1875
1939
2129
2329
2460
2454
2323
2151
2013
2006
2147
2319
2474
2499
2389
2220
2067
2021
2112
2294
2479
2559
2501
2346
2171
2061
2083
2214
2395
2515
2496
2368
2185
2039
2027
2140
2314
2455
2490
2389
2206
2027
1947
2013
2167
2310
2357
2276
2110
1910
1798
1837
1981
2158
2260
2243
2122
1968
1827
1781
1866
2027
2175
2196
2096
1904
1728
1671
1770
1946
2119
2201
2142
1979
1805
1710
1744
1885
2070
2189
2176
2047
1872
1728
1717
1838
2000
2143
2176
2083
1904
1743
1704
1798
1985
2160
2217
2137
1968
1791
1689
1734
1897
2106
2246
2238
2074
1862
1710
1690
1808
1991
2162
2211
2119
1929
1759
1709
1797
1968
2149
2234
2193
2055
1877
1760
1776
1914
2098
2213
2202
2077
1895
1765
1758
1870
2045
2210
2261
2155
1967
1779
1722
1795
1968
2160
2247
2193
2046
1875
1774
1799
1938
2130
2270
2284
2175
2000
1856
1824
1927
2112
2262
2294
2192
2019
1860
1807
1894
2083
2262
2345
2283
2114
1933
1820
1835
1963
2138
2247
2235
2109
1908
1758
1734
1855
2043
2192
2224
2128
1946
1776
1709
1779
1958
2135
2222
2173
2032
1870
1762
1783
1917
2089
2202
2186
2056
1878
1767
1793
1959
2212
2433
2534
2490
2352
2209
2147
2204
2341
2469
2507
2402
2161
1875
1661
1598
1674
1825
1950
1965
1851
1719
1607
1600
1721
1931
2114
2172
2090
1914
1746
1683
1778
1981
2181
2276
2229
2080
1894
1785
1806
1939
2128
2266
2265
2128
1934
1793
1790
1905
2097
2266
2323
2243
2067
1887
1807
1870
2032
2224
2343
2322
2189
2013
1899
1904
2030
2223
2365
2373
2251
2067
1911
1878
1987
2187
2361
2427
2359
2192
2027
1959
2053
2219
2384
2475
2432
2293
2112
1986
2014
2160
2351
2489
2503
2383
2209
2070
2060
2158
2320
2477
2521
2425
2244
2064
1969
2023
2186
2365
2453
2398
2245
2062
1939
1939
2061
2230
2352
2345
2205
2007
1863
1837
1934
2101
2256
2297
2197
2011
1820
1735
1799
1980
2198
2321
2240
2035
1819
1674
1666
1794
1968
2119
2128
2000
1815
1653
1616
1719
1920
2111
2191
2128
1959
1776
1678
1729
1883
2060
2170
2140
2001
1820
1697
1707
1831
2012
2153
2169
2076
1899
1746
1706
1806
1975
2136
2190
2112
1950
1778
1693
1739
1902
2112
2215
2174
2027
1849
1731
1735
1840
2013
2151
2175
2069
1893
1721
1680
1776
1948
2125
2186
2111
1937
1783
1700
1750
1902
2077
2192
2174
2033
1851
1729
1741
1870
2047
2190
2195
2096
1920
1779
1744
1845
2035
2227
2291
2212
2043
1871
1786
1837
1994
2186
2301
2277
2133
1937
1799
1791
1904
2087
2219
2235
2127
1933
1765
1711
1790
1948
2102
2161
2098
1937
1765
1680
1739
1901
2087
2200
2171
2030
1838
1696
1693
1793
1995
2145
2165
2059
1863
1718
1681
1782
1970
2163
2263
2255
2158
2032
1975
2063
2256
2457
2559
2533
2369
2143
1950
1887
1936
2032
2091
2015
1837
1613
1429
1392
1507
1725
1923
2013
1965
1803
1629
1564
1649
1849
2075
2219
2207
2081
1905
1781
1775
1878
2054
2206
2242
2147
1970
1806
1753
1836
2005
2182
2257
2190
2023
1838
1747
1806
1974
2160
2274
2253
2117
1910
1794
1805
1934
2116
2274
2307
2197
1999
1842
1789
1877
2069
2256
2331
2263
2112
1936
1827
1861
2001
2205
2347
2354
2241
2077
1937
1943
2078
2278
2442
2478
2384
2212
2047
1990
2073
2240
2406
2471
2399
2240
2063
1959
2001
2142
2315
2434
2427
2291
2099
1956
1933
2033
2206
2346
2368
2256
2082
1894
1818
1883
2046
2201
2262
2179
1999
1825
1712
1758
1900
2069
2169
2134
1999
1823
1685
1670
1781
1968
2115
2149
2037
1855
1686
1634
1707
1872
2042
2128
2083
1936
1775
1673
1702
1837
2001
2119
2109
1969
1766
1607
1599
1723
1904
2047
2074
1967
1791
1629
1579
1674
1859
2058
2160
2112
1943
1754
1650
1684
1836
2017
2133
2117
1979
1795
1663
1659
1779
1963
2127
2169
2076
1890
1734
1676
1774
1967
2148
2211
2133
1966
1778
1664
1695
1840
2018
2158
2160
2030
1835
1680
1661
1785
1957
2114
2151
2057
1868
1715
1669
1760
1936
2128
2211
2165
2016
1845
1734
1765
1904
2090
2215
2211
2094
1906
1763
1745
1855
2032
2199
2246
2160
1994
1837
1776
1845
2007
2179
2255
2197
2030
1857
1738
1761
1901
2075
2201
2192
2059
1872
1718
1686
1792
1969
2122
2159
2069
1900
1735
1663
1721
1874
2085
2189
2132
1957
1783
1648
1679
1825
2005
2141
2154
2047
1900
1791
1811
1968
2197
2403
2487
2439
2307
2173
2096
2112
2209
2321
2359
2259
2029
1746
1535
1505
1619
1792
1923
1947
1846
1690
1567
1578
1719
1934
2128
2192
2118
1967
1818
1745
1810
1969
2155
2239
2194
2047
1873
1771
1805
1942
2121
2238
2223
2102
1953
1858
1890
2031
2240
2438
2517
2451
2291
2123
2057
2131
2311
2494
2589
2531
2384
2213
2102
2110
2222
2384
2496
2501
2384
2194
2064
2054
2158
2345
2513
2559
2480
2320
2171
2090
2145
2304
2486
2593
2559
2418
2255
2148
2166
2301
2486
2624
2624
2497
2314
2176
2155
2253
2423
2578
2614
2518
2352
2179
2097
2160
2305
2461
2529
2463
2289
2096
1968
1979
2113
2283
2384
2368
2241
2064
1911
1877
1961
2110
2246
2298
2222
2044
1856
1765
1819
1998
2166
2257
2213
2063
1872
1754
1771
1906
2099
2237
2241
2130
1936
1773
1728
1811
1987
2160
2225
2148
1973
1793
1705
1761
1926
2112
2213
2173
2007
1815
1687
1703
1837
2022
2161
2169
2055
1869
1712
1680
1792
1965
2117
2187
2119
1959
1800
1722
1765
1909
2076
2176
2141
1985
1815
1697
1719
1852
2042
2178
2193
2078
1878
1712
1666
1758
1936
2099
2159
2085
1919
1753
1680
1749
1906
2086
2176
2141
1997
1811
1675
1678
1792
1973
2119
2127
2011
1839
1696
1668
1766
1943
2117
2167
2077
1888
1712
1641
1721
1890
2083
2198
2175
2038
1860
1728
1728
1849
2054
2193
2207
2094
1919
1767
1740
1850
2027
2180
2238
2155
1985
1825
1749
1807
1962
2140
2228
2183
2026
1837
1698
1709
1839
2020
2139
2127
1987
1798
1648
1616
1709
1877
2057
2139
2078
1904
1727
1646
1693
1840
1999
2101
2077
1940
1760
1629
1639
1765
1951
2112
2147
2046
1913
1810
1824
1968
2208
2431
2544
2510
2353
2161
2032
2014
2097
2222
2277
2160
1910
1635
1431
1406
1515
1709
1865
1917
1840
1697
1569
1535
1669
1863
2060
2133
2080
1918
1760
1680
1731
1891
2082
2191
2168
2027
1856
1729
1734
1856
2032
2175
2197
2103
1922
1773
1727
1810
1984
2159
2226
2163
2006
1843
1751
1798
1950
2141
2261
2259
2146
1968
1840
1839
1949
2128
2266
2282
2174
1994
1845
1802
1897
2083
2264
2346
2288
2133
1974
1904
1962
2109
2288
2401
2378
2238
2058
1921
1914
2032
2233
2399
2437
2336
2160
1998
1938
2015
2185
2351
2429
2369
2213
2029
1935
1967
2103
2302
2411
2384
2225
2018
1842
1821
1927
2112
2257
2298
2194
1985
1787
1711
1781
1947
2107
2160
2081
1907
1709
1616
1664
1819
2001
2115
2086
1940
1769
1637
1622
1723
1895
2045
2077
1982
1815
1666
1616
1699
1874
2047
2130
2064
1895
1718
1624
1666
1809
1985
2112
2112
1990
1808
1675
1680
1823
1979
2117
2125
2009
1836
1687
1637
1707
1867
2028
2112
2052
1890
1712
1617
1657
1809
1993
2113
2109
1973
1793
1655
1648
1762
1946
2095
2113
2013
1841
1680
1618
1706
1875
2052
2122
2078
1937
1776
1673
1705
1855
2027
2143
2131
2007
1835
1699
1691
1807
1991
2151
2182
2092
1929
1779
1728
1793
1936
2095
2154
2095
1931
1771
1676
1712
1853
2019
2139
2116
1984
1808
1673
1665
1787
1971
2133
2177
2086
1907
1746
1698
1787
1964
2149
2242
2192
2034
1862
1759
1787
1921
2099
2213
2211
2105
1943
1807
1792
1906
2089
2227
2244
2138
1951
1771
1682
1749
1909
2086
2173
2114
1949
1775
1651
1677
1824
2000
2122
2105
1965
1776
1646
1638
1757
1943
2114
2163
2075
1891
1728
1671
1731
1889
2064
2157
2119
2011
1894
1856
1945
2151
2384
2549
2559
2455
2240
2044
1966
2007
2095
2161
2123
1945
1706
1484
1379
1411
1567
1758
1879
1866
1743
1597
1511
1581
1756
1973
2135
2160
2041
1879
1731
1712
1810
1998
2172
2221
2125
1941
1770
1693
1767
1941
2127
2215
2171
2013
1840
1755
1796
1936
2098
2215
2210
2083
1904
1760
1744
1856
2030
2192
2240
2163
1986
1818
1751
1827
2002
2199
2302
2266
2107
1913
1805
1841
1981
2175
2321
2333
2215
2033
1899
1887
2015
2209
2375
2419
2330
2159
1993
1933
2013
2190
2379
2465
2403
2242
2064
1954
1983
2124
2299
2419
2416
2295
2099
1939
1907
2003
2172
2310
2355
2262
2083
1907
1835
1875
2000
2194
2267
2186
2019
1827
1731
1744
1859
2030
2145
2129
1994
1799
1648
1625
1730
1905
2075
2139
2059
1877
1699
1611
1663
1819
1998
2096
2035
1890
1707
1587
1602
1731
1922
2074
2095
1971
1787
1616
1567
1654
1831
1991
2058
1983
1827
1664
1595
1661
1821
2000
2089
2031
1872
1694
1589
1618
1776
1968
2122
2123
1985
1813
1665
1629
1727
1919
2086
2133
2046
1863
1691
1622
1696
1870
2064
2157
2109
1953
1774
1662
1682
1821
1995
2118
2113
1993
1823
1682
1659
1757
1922
2074
2128
2059
1902
1735
1654
1712
1863
2036
2137
2090
1933
1749
1635
1650
1785
1987
2125
2138
2023
1842
1689
1667
1781
1942
2099
2157
2082
1918
1744
1664
1712
1862
2032
2135
2093
1941
1744
1627
1651
1791
1977
2112
2130
2037
1874
1744
1719
1825
2002
2159
2199
2117
1950
1785
1694
1759
1933
2125
2219
2176
2022
1840
1728
1747
1883
2073
2192
2177
2047
1857
1707
1674
1792
1968
2143
2203
2112
1907
1705
1610
1678
1867
2055
2162
2115
1968
1786
1664
1680
1821
1985
2119
2122
2006
1825
1680
1647
1759
1967
2182
2292
2252
2125
1994
1969
2083
2286
2480
2588
2507
2299
2039
1847
1775
1799
1883
1934
1868
1706
1506
1373
1377
1514
1735
1920
1993
1936
1792
1638
1581
1658
1840
2043
2175
2153
2015
1845
1730
1743
1874
2065
2193
2192
2082
1905
1735
1695
1783
1961
2139
2214
2149
1984
1819
1744
1797
1947
2127
2237
2209
2078
1881
1739
1747
1903
2080
2224
2246
2153
1972
1841
1810
1915
2096
2256
2320
2255
2101
1930
1847
1904
2073
2259
2382
2362
2230
2060
1945
1964
2098
2282
2428
2461
2373
2209
2057
2000
2096
2266
2415
2455
2373
2202
2027
1922
1956
2119
2305
2402
2363
2213
2035
1907
1909
2026
2198
2330
2337
2218
2014
1842
1777
1847
2003
2157
2215
2135
1959
1771
1669
1711
1856
2000
2096
2082
1953
1773
1645
1648
1776
1962
2112
2124
1994
1807
1652
1616
1709
1874
2033
2106
2031
1869
1666
1567
1599
1743
1924
2055
2036
1921
1744
1615
1623
1746
1914
2059
2077
1949
1761
1597
1531
1614
1792
1984
2090
2027
1859
1680
1585
1635
1798
1977
2081
2047
1901
1728
1587
1602
1714
1902
2038
2064
1966
1761
1614
1554
1638
1828
2007
2103
2047
1886
1702
1619
1678
1833
2027
2159
2122
1968
1779
1633
1621
1758
1945
2093
2109
1994
1810
1648
1590
1677
1842
1997
2074
2017
1859
1675
1594
1651
1803
1982
2095
2067
1927
1751
1627
1632
1743
1936
2090
2112
2009
1856
1710
1680
1781
1965
2129
2194
2121
1952
1776
1687
1730
1893
2096
2221
2208
2057
1860
1707
1714
1853
2039
2160
2159
2030
1840
1664
1606
1673
1833
1994
2077
2009
1853
1675
1583
1631
1791
1978
2112
2099
1968
1793
1670
1664
1786
1968
2110
2125
2013
1827
1666
1628
1751
1975
2195
2316
2297
2192
2067
1999
2064
2213
2381
2453
2385
2197
1936
1699
1597
1617
1738
1826
1838
1728
1559
1411
1397
1523
1744
1951
2053
2003
1862
1701
1611
1664
1831
2031
2167
2158
2015
1811
1677
1680
1805
1991
2137
2164
2075
1903
1731
1680
1766
1939
2119
2215
2170
2015
1841
1744
1793
1942
2119
2222
2198
2061
1869
1733
1712
1823
2004
2177
2250
2185
2000
1856
1807
1901
2079
2243
2306
2240
2087
1916
1823
1879
2042
2235
2352
2332
2197
2019
1903
1923
2086
2288
2429
2454
2358
2179
2013
1959
2031
2193
2352
2425
2382
2224
2057
1943
1983
2123
2305
2431
2412
2269
2078
1935
1911
2005
2160
2283
2302
2194
2021
1857
1783
1840
2005
2157
2228
2171
2006
1837
1718
1744
1872
2042
2161
2155
2011
1822
1680
1669
1798
1973
2128
2179
2089
1886
1703
1627
1693
1856
2029
2115
2064
1919
1751
1648
1675
1823
2016
2159
2157
2004
1826
1695
1648
1746
1925
2083
2117
2027
1854
1699
1647
1722
1901
2086
2181
2128
1978
1807
1701
1733
1883
2078
2192
2191
2067
1882
1733
1695
1794
1963
2112
2144
2054
1873
1722
1665
1733
1898
2078
2165
2115
1969
1793
1669
1679
1829
2039
2197
2217
2098
1909
1765
1739
1840
2014
2171
2207
2114
1941
1786
1728
1801
1958
2127
2199
2160
2026
1876
1805
1850
1967
2156
2279
2272
2145
1968
1810
1802
1925
2110
2266
2319
2240
2066
1878
1781
1845
2009
2187
2278
2225
2063
1856
1728
1744
1882
2077
2195
2190
2077
1905
1770
1751
1872
2056
2203
2240
2152
1957
1785
1722
1803
1989
2178
2267
2218
2062
1873
1755
1771
1925
2144
2315
2346
2257
2134
2053
2087
2224
2418
2583
2623
2513
2302
2069
1931
1925
2011
2102
2107
1969
1759
1563
1466
1523
1710
1932
2096
2119
2023
1857
1711
1680
1806
2014
2199
2269
2197
2033
1866
1792
1867
2042
2234
2340
2295
2146
1964
1843
1871
2007
2199
2331
2333
2202
2016
1875
1855
1950
2123
2270
2306
2208
2038
1883
1824
1889
2058
2242
2333
2288
2145
1967
1857
1885
2032
2234
2368
2368
2245
2039
1901
1878
1997
2203
2384
2462
2384
2215
2047
1985
2064
2224
2396
2501
2473
2323
2131
2002
2023
2182
2371
2485
2480
2357
2177
2019
1975
2086
2271
2430
2480
2391
2207
2006
1905
1959
2126
2288
2372
2319
2159
1949
1819
1830
1952
2128
2253
2246
2112
1931
1776
1744
1840
2020
2155
2193
2103
1920
1729
1655
1713
1866
2029
2115
2067
1920
1745
1621
1650
1781
1994
2133
2149
2032
1853
1705
1663
1739
1909
2063
2109
2011
1840
1669
1603
1667
1834
2010
2111
2078
1910
1759
1657
1680
1817
1995
2141
2141
2019
1840
1687
1647
1735
1913
2085
2153
2082
1924
1743
1651
1709
1868
2067
2197
2164
1995
1793
1665
1667
1799
1990
2140
2162
2047
1863
1712
1680
1771
1966
2127
2180
2097
1929
1765
1682
1739
1895
2085
2186
2155
2006
1826
1712
1727
1858
2038
2177
2190
2087
1914
1772
1732
1821
1986
2159
2229
2161
2016
1859
1782
1831
1983
2160
2253
2198
2035
1834
1686
1674
1801
1991
2138
2144
2031
1851
1701
1676
1775
1946
2112
2165
2091
1921
1745
1662
1707
1856
2013
2112
2066
1909
1729
1614
1625
1776
1980
2148
2183
2114
1981
1872
1875
2001
2217
2415
2499
2426
2240
2026
1886
1876
1966
2085
2113
2000
1810
1591
1444
1446
1584
1786
1941
1969
1871
1711
1565
1535
1680
1895
2083
2157
2090
1937
1787
1715
1782
1931
2124
2221
2175
2036
1863
1723
1734
1869
2047
2181
2179
2059
1877
1735
1711
1802
1973
2144
2210
2157
2000
1840
1756
1794
1936
2114
2224
2210
2096
1925
1787
1791
1933
2126
2267
2275
2157
1982
1833
1795
1903
2100
2270
2334
2265
2114
1953
1890
1952
2114
2288
2405
2375
2237
2057
1941
1957
2073
2255
2387
2407
2288
2097
1938
1906
2005
2173
2320
2372
2299
2131
1943
1841
1882
2027
2192
2295
2259
2119
1926
1787
1771
1871
2035
2172
2182
2077
1903
1744
1695
1783
1966
2135
2218
2143
1969
1771
1652
1694
1855
2038
2146
2095
1944
1782
1653
1630
1731
1901
2029
2043
1951
1792
1657
1630
1735
1906
2077
2134
2063
1874
1690
1601
1663
1829
2009
2126
2096
1941
1773
1655
1662
1787
1969
2112
2128
2011
1837
1679
1637
1719
1895
2070
2139
2081
1904
1705
1611
1659
1828
2017
2126
2097
1946
1765
1632
1648
1782
1979
2138
2161
2042
1852
1683
1635
1725
1909
2096
2165
2093
1923
1741
1646
1691
1837
2000
2135
2126
2000
1839
1735
1758
1892
2082
2226
2245
2130
1945
1794
1744
1810
1970
2136
2202
2131
1957
1795
1711
1760
1905
2081
2174
2117
1954
1767
1627
1614
1726
1927
2113
2158
2063
1866
1699
1663
1753
1923
2090
2158
2083
1916
1746
1673
1727
1879
2059
2161
2128
1972
1782
1663
1699
1846
2075
2261
2330
2256
2121
1997
1963
2047
2201
2341
2368
2250
2027
1779
1611
1584
1664
1787
1863
1832
1703
1535
1423
1438
1585
1808
1985
2055
1982
1831
1698
1667
1765
1945
2122
2193
2129
1974
1800
1702
1744
1889
2065
2176
2171
2047
1883
1761
1765
1878
2067
2209
2230
2135
1951
1790
1729
1815
1987
2160
2238
2199
2045
1856
1753
1792
1926
2112
2208
2175
2032
1863
1765
1808
1962
2157
2309
2345
2254
2089
1940
1898
1969
2129
2293
2363
2304
2155
1984
1887
1933
2095
2282
2414
2404
2282
2105
1955
1939
2061
2245
2386
2411
2290
2107
1932
1873
1955
2113
2289
2373
2331
2177
1971
1858
1874
2011
2189
2307
2291
2142
1923
1762
1747
1881
2073
2199
2226
2135
1951
1766
1681
1742
1894
2068
2147
2089
1931
1751
1649
1681
1834
2012
2125
2103
1963
1774
1646
1635
1750
1931
2083
2111
2000
1835
1674
1616
1703
1873
2061
2146
2107
1956
1791
1690
1727
1869
2053
2175
2160
2017
1855
1717
1703
1818
1999
2161
2195
2096
1910
1745
1682
1760
1920
2085
2167
2114
1963
1791
1711
1761
1907
2082
2186
2160
2014
1835
1702
1678
1775
1943
2098
2131
2043
1883
1735
1681
1760
1943
2127
2203
2145
1983
1836
1747
1798
1949
2131
2257
2237
2112
1939
1820
1805
1900
2070
2228
2288
2215
2054
1879
1807
1873
2031
2191
2256
2185
2020
1843
1735
1760
1874
2038
2160
2157
2033
1871
1743
1734
1827
1995
2142
2176
2081
1904
1746
1696
1776
1938
2111
2181
2115
1951
1767
1665
1708
1835
2063
2230
2283
2215
2095
2000
2011
2131
2307
2437
2433
2293
2062
1831
1710
1723
1826
1946
1984
1894
1714
1530
1418
1462
1619
1827
1983
2006
1907
1750
1643
1661
1789
1979
2145
2192
2119
1953
1803
1755
1841
2000
2157
2229
2181
2015
1829
1721
1753
1903
2096
2224
2222
2077
1904
1761
1766
1882
2065
2225
2263
2166
1983
1823
1787
1875
2043
2225
2304
2239
2078
1902
1797
1827
1969
2160
2306
2313
2198
2020
1888
1872
1978
2160
2320
2384
2317
2167
1999
1930
2005
2165
2321
2414
2365
2224
2042
1919
1937
2087
2270
2402
2406
2278
2101
1955
1935
2031
2211
2359
2396
2301
2128
1952
1880
1936
2079
2229
2301
2240
2075
1887
1776
1797
1919
2109
2234
2207
2067
1877
1734
1709
1813
1989
2149
2181
2103
1926
1742
1661
1727
1886
2060
2147
2095
1931
1744
1630
1663
1808
1989
2121
2106
1975
1782
1645
1638
1747
1916
2047
2073
1984
1838
1690
1635
1711
1883
2073
2175
2142
1994
1811
1697
1712
1845
2013
2137
2130
2011
1818
1670
1659
1767
1960
2109
2163
2093
1907
1741
1659
1716
1882
2062
2160
2118
1956
1767
1662
1687
1815
2001
2151
2155
2027
1847
1702
1680
1776
1945
2109
2159
2090
1935
1774
1723
1802
1953
2115
2192
2135
1985
1825
1728
1766
1919
2115
2256
2247
2125
1931
1789
1765
1852
2055
2225
2279
2193
2032
1829
1737
1795
1949
2119
2192
2131
1970
1781
1655
1671
1806
1982
2101
2089
1954
1769
1633
1627
1746
1937
2097
2127
2021
1840
1664
1596
1665
1842
2012
2119
2085
1938
1773
1683
1754
1952
2170
2333
2382
2299
2159
2043
2035
2149
2297
2389
2370
2211
1969
1715
1567
1556
1674
1783
1853
1798
1663
1509
1430
1499
1678
1879
2039
2084
1968
1799
1675
1667
1791
1978
2148
2205
2117
1937
1771
1695
1766
1934
2119
2224
2193
2047
1872
1755
1777
1915
2102
2238
2239
2109
1923
1791
1767
1866
2038
2199
2257
2190
2030
1881
1822
1895
2064
2222
2302
2247
2103
1904
1783
1811
1967
2179
2320
2327
2223
2067
1936
1925
2034
2209
2365
2415
2337
2176
2014
1953
2019
2187
2358
2443
2422
2283
2088
1970
1982
2115
2298
2436
2446
2330
2160
2015
2000
2106
2249
2359
2385
2293
2119
1941
1872
1922
2078
2245
2338
2297
2140
1945
1811
1821
1938
2112
2224
2205
2075
1872
1706
1669
1777
1963
2133
2185
2095
1919
1752
1673
1731
1884
2044
2128
2077
1930
1774
1639
1659
1811
2016
2165
2176
2030
1822
1648
1602
1697
1879
2053
2115
2042
1884
1720
1652
1713
1866
2034
2131
2083
1926
1754
1648
1689
1826
2002
2128
2128
2007
1834
1681
1639
1727
1903
2066
2122
2043
1871
1704
1648
1730
1916
2106
2202
2147
1988
1807
1679
1690
1826
2003
2151
2157
2033
1865
1714
1683
1782
1957
2125
2192
2130
1967
1797
1700
1751
1909
2077
2176
2141
2000
1835
1728
1745
1887
2083
2224
2235
2132
1967
1819
1779
1865
2029
2194
2258
2191
2032
1856
1774
1839
2002
2192
2288
2242
2091
1901
1769
1783
1919
2102
2223
2210
2079
1891
1731
1698
1785
1951
2103
2151
2070
1901
1726
1644
1711
1879
2078
2189
2155
2009
1834
1712
1719
1843
2030
2160
2153
2025
1839
1709
1699
1833
2057
2263
2375
2357
2245
2111
2066
2154
2311
2459
2512
2414
2187
1925
1731
1664
1710
1809
1884
1867
1759
1612
1490
1486
1604
1808
2003
2087
2022
1871
1728
1657
1729
1920
2095
2210
2192
2068
1871
1758
1763
1878
2058
2188
2204
2099
1923
1776
1743
1843
2038
2220
2282
2222
2065
1895
1799
1841
1997
2175
2273
2228
2093
1921
1812
1843
1985
2176
2313
2325
2220
2047
1905
1876
1968
2146
2286
2348
2304
2165
1994
1918
1994
2165
2367
2465
2423
2291
2112
1996
2015
2145
2319
2459
2484
2373
2196
2041
2007
2119
2305
2453
2495
2403
2231
2054
1953
2001
2163
2352
2449
2407
2242
2047
1919
1920
2046
2226
2359
2352
2223
2039
1884
1841
1929
2094
2234
2258
2160
1983
1806
1715
1776
1934
2115
2209
2163
2014
1826
1697
1697
1808
1994
2134
2151
2039
1871
1725
1695
1787
1946
2105
2169
2110
1949
1783
1691
1741
1890
2068
2161
2122
1984
1783
1667
1701
1855
2047
2161
2149
2032
1849
1679
1621
1728
1919
2096
2166
2096
1928
1764
1683
1735
1882
2074
2189
2159
2007
1824
1700
1710
1835
2011
2155
2178
2078
1906
1755
1709
1782
1937
2112
2197
2139
1984
1808
1725
1767
1905
2079
2187
2170
2027
1838
1701
1707
1840
2037
2188
2207
2114
1938
1771
1695
1771
1949
2130
2207
2139
1994
1808
1715
1760
1916
2106
2239
2223
2096
1920
1795
1807
1940
2144
2302
2325
2214
2028
1855
1807
1887
2047
2197
2251
2173
2003
1836
1727
1742
1863
2047
2186
2160
2013
1827
1690
1690
1815
2004
2161
2187
2088
1902
1729
1691
1792
1970
2135
2207
2128
1943
1766
1680
1739
1902
2112
2266
2298
2227
2106
2016
2045
2194
2387
2514
2494
2352
2142
1937
1829
1845
1945
2035
2027
1907
1728
1535
1454
1509
1691
1897
2018
2006
1889
1727
1622
1630
1761
1951
2115
2170
2097
1930
1779
1735
1842
2038
2219
2287
2207
2027
1856
1786
1853
2007
2197
2297
2270
2133
1955
1815
1814
1944
2146
2303
2316
2206
2012
1857
1815
1911
2098
2287
2374
2319
2147
1968
1872
1923
2069
2243
2353
2326
2181
1984
1858
1866
2000
2194
2365
2401
2318
2172
2031
1995
2108
2288
2463
2531
2459
2288
2106
2002
2042
2187
2367
2480
2463
2346
2166
2025
2003
2107
2275
2421
2451
2345
2161
1997
1950
2032
2186
2323
2366
2277
2110
1906
1792
1813
1954
2129
2232
2187
2037
1854
1726
1725
1833
1997
2135
2150
2019
1835
1679
1648
1742
1923
2091
2157
2092
1924
1763
1663
1699
1834
2004
2127
2109
1971
1808
1686
1691
1812
1991
2123
2130
2013
1829
1655
1600
1680
1855
2019
2079
2019
1872
1712
1611
1657
1820
2013
2128
2115
1984
1817
1699
1697
1798
1975
2115
2126
2015
1851
1695
1646
1724
1895
2064
2142
2098
1942
1760
1659
1691
1845
2032
2160
2154
2015
1840
1715
1713
1835
2010
2158
2188
2094
1900
1721
1667
1751
1920
2096
2179
2129
1965
1783
1697
1751
1907
2106
2225
2199
2039
1872
1745
1742
1856
2029
2205
2240
2147
1978
1823
1759
1839
1999
2170
2253
2196
2039
1867
1774
1803
1923
2070
2167
2146
2000
1819
1678
1670
1794
1990
2160
2189
2086
1901
1738
1697
1788
1953
2113
2170
2089
1915
1746
1665
1719
1866
2045
2173
2169
2063
1916
1836
1875
2037
2256
2432
2480
2399
2225
2039
1951
1984
2102
2214
2223
2091
1856
1606
1441
1443
1589
1788
1941
1951
1840
1667
1554
1589
1735
1921
2091
2134
2053
1889
1742
1695
1785
1966
2153
2237
2181
2011
1821
1712
1744
1891
2082
2206
2194
2065
1881
1743
1743
1847
2035
2183
2208
2123
1968
1825
1793
1895
2064
2224
2285
2209
2042
1873
1792
1847
2010
2200
2304
2265
2125
1930
1818
1814
1936
2128
2299
2351
2256
2084
1921
1870
1955
2131
2307
2386
2326
2176
2010
1919
1968
2125
2314
2442
2413
2275
2091
1922
1897
2017
2214
2366
2398
2302
2138
1987
1918
1968
2121
2269
2330
2258
2096
1904
1798
1840
1984
2157
2256
2213
2061
1854
1708
1698
1808
1971
2111
2127
2032
1856
1682
1630
1705
1869
2039
2133
2085
1936
1767
1671
1695
1823
1986
2097
2081
1945
1758
1616
1603
1712
1902
2064
2097
1995
1827
1679
1616
1696
1863
2032
2105
2033
1891
1701
1605
1654
1808
1989
2107
2089
1943
1757
1635
1644
1762
1939
2085
2116
2025
1853
1683
1626
1712
1878
2065
2151
2090
1920
1733
1631
1680
1826
2019
2147
2139
2021
1851
1725
1706
1808
1984
2141
2160
2041
1866
1703
1657
1745
1918
2090
2185
2128
1982
1811
1713
1751
1914
2095
2209
2203
2077
1903
1757
1745
1865
2045
2199
2240
2146
1981
1825
1775
1854
2013
2176
2256
2183
2000
1804
1680
1699
1835
2005
2123
2101
1966
1787
1663
1667
1792
1982
2135
2171
2066
1891
1730
1670
1766
1951
2126
2190
2117
1940
1753
1655
1695
1845
2062
2224
2253
2165
2028
1927
1959
2102
2301
2462
2482
2349
2128
1914
1794
1803
1895
1987
1995
1881
1689
1489
1393
1451
1628
1856
1986
1999
1898
1750
1652
1680
1819
2007
2174
2210
2128
1960
1808
1747
1821
1984
2163
2256
2201
2039
1861
1773
1821
1968
2155
2268
2242
2102
1915
1782
1791
1904
2066
2195
2233
2132
1965
1813
1776
1861
2039
2215
2288
2221
2064
1877
1781
1821
1973
2173
2295
2304
2195
2019
1879
1863
1970
2161
2323
2374
2293
2127
1975
1933
2015
2191
2365
2448
2400
2256
2097
2001
2037
2166
2331
2443
2433
2309
2126
1977
1954
2065
2251
2394
2421
2315
2128
1957
1887
1942
2118
2290
2359
2275
2097
1915
1808
1835
1943
2110
2230
2224
2101
1897
1754
1730
1836
2001
2167
2205
2112
1922
1743
1664
1723
1884
2064
2140
2082
1919
1746
1652
1693
1851
2039
2167
2155
2022
1839
1691
1667
1771
1942
2103
2148
2062
1886
1730
1664
1741
1910
2093
2169
2102
1949
1791
1701
1722
1850
2017
2130
2125
1983
1794
1658
1645
1744
1936
2097
2133
2042
1857
1728
1677
1750
1911
2078
2151
2085
1918
1729
1645
1697
1856
2061
2199
2196
2065
1877
1728
1712
1815
2000
2167
2211
2130
1958
1803
1739
1792
1947
2112
2195
2131
1970
1803
1708
1748
1898
2064
2182
2183
2064
1886
1746
1739
1852
2031
2186
2240
2174
2004
1838
1763
1827
1989
2163
2251
2181
2003
1806
1683
1712
1843
2011
2125
2116
1997
1825
1697
1693
1812
1997
2133
2166
2082
1908
1743
1675
1717
1859
2035
2139
2083
1903
1710
1609
1664
1835
2047
2224
2261
2179
2038
1946
1967
2101
2302
2449
2458
2335
2117
1897
1767
1765
1840
1920
1929
1818
1611
1434
1342
1397
1584
1813
1965
1987
1899
1750
1632
1637
1769
1967
2128
2176
2082
1895
1728
1677
1760
1936
2112
2194
2134
1971
1793
1693
1732
1885
2089
2224
2224
2112
1936
1798
1776
1869
2042
2206
2262
2186
2010
1845
1777
1843
2006
2190
2282
2235
2086
1899
1789
1808
1945
2141
2289
2303
2185
2018
1901
1902
1995
2161
2310
2359
2275
2103
1943
1885
1962
2132
2314
2416
2384
2240
2067
1968
2004
2167
2349
2459
2446
2313
2119
1955
1905
1989
2166
2320
2368
2288
2122
1951
1874
1922
2073
2233
2304
2239
2074
1885
1764
1793
1936
2111
2227
2207
2058
1841
1680
1638
1726
1903
2067
2111
2015
1857
1693
1638
1718
1872
2029
2098
2032
1879
1695
1583
1600
1730
1911
2042
2043
1922
1743
1602
1591
1694
1873
2033
2083
1998
1828
1665
1600
1655
1823
2000
2099
2075
1951
1773
1638
1638
1744
1901
2023
2033
1935
1771
1647
1630
1730
1904
2059
2099
2022
1869
1712
1651
1723
1874
2054
2144
2100
1951
1786
1669
1685
1813
1993
2129
2129
2006
1824
1673
1648
1748
1932
2096
2145
2063
1887
1721
1648
1703
1869
2062
2161
2125
1971
1782
1662
1678
1815
1996
2158
2170
2059
1893
1750
1708
1794
1978
2141
2187
2107
1950
1792
1731
1799
1968
2150
2246
2213
2054
1852
1711
1714
1835
2003
2135
2134
2003
1823
1669
1641
1732
1911
2081
2139
2047
1885
1714
1639
1709
1870
2037
2134
2085
1931
1763
1655
1674
1808
1978
2103
2098
1996
1844
1741
1760
1935
2160
2373
2470
2433
2288
2146
2059
2085
2192
2303
2329
2197
1956
1680
1473
1426
1521
1683
1822
1856
1780
1642
1520
1526
1669
1874
2043
2119
2064
1910
1748
1679
1744
1915
2103
2212
2147
1991
1814
1712
1744
1874
2047
2183
2192
2081
1901
1757
1735
1841
2014
2161
2192
2118
1966
1815
1760
1834
1995
2171
2267
2231
2095
1911
1795
1808
1958
2135
2271
2289
2180
1983
1841
1809
1909
2098
2271
2346
2285
2134
1969
1899
1951
2111
2301
2412
2382
2250
2094
1979
2000
2143
2304
2434
2442
2307
2113
1948
1915
2019
2199
2366
2411
2330
2167
1998
1920
1969
2114
2268
2352
2299
2145
1969
1827
1837
1955
2129
2251
2241
2115
1920
1771
1737
1827
1990
2154
2193
2096
1920
1744
1670
1728
1883
2047
2142
2102
1962
1781
1652
1661
1786
1959
2086
2075
1938
1742
1584
1562
1664
1847
2011
2066
1983
1811
1634
1584
1649
1811
1998
2097
2058
1909
1728
1607
1627
1748
1931
2064
2064
1953
1770
1631
1616
1728
1923
2085
2143
2055
1881
1712
1629
1684
1849
2038
2148
2109
1961
1776
1664
1683
1814
2000
2138
2139
2013
1818
1664
1641
1718
1873
2032
2096
2032
1886
1733
1666
1728
1886
2062
2157
2121
1970
1792
1676
1692
1827
2023
2162
2176
2071
1887
1741
1719
1820
1991
2161
2219
2146
1982
1819
1733
1787
1937
2112
2222
2191
2061
1863
1735
1754
1885
2097
2256
2267
2141
1943
1779
1745
1844
2013
2159
2203
2118
1938
1742
1635
1680
1846
2047
2162
2127
1975
1795
1680
1695
1813
1984
2114
2121
1994
1815
1659
1618
1731
1904
2079
2135
2066
1909
1776
1745
1861
2065
2278
2407
2400
2289
2143
2037
2041
2142
2278
2368
2322
2149
1902
1677
1535
1535
1659
1791
1842
1787
1638
1525
1483
1583
1766
1975
2091
2067
1933
1781
1680
1727
1883
2087
2223
2230
2119
1939
1781
1733
1821
1991
2165
2233
2162
2000
1821
1732
1779
1941
2138
2258
2237
2107
1934
1808
1819
1939
2117
2252
2262
2150
1986
1859
1845
1949
2118
2278
2338
2271
2113
1941
1863
1919
2081
2265
2378
2358
2218
2034
1911
1921
2041
2247
2394
2413
2304
2137
2007
1969
2077
2257
2427
2497
2434
2282
2121
2012
2043
2183
2358
2459
2441
2309
2125
1984
1973
2086
2239
2355
2371
2259
2081
1918
1865
1949
2117
2271
2309
2237
2067
1875
1790
1837
1980
2155
2247
2203
2054
1851
1733
1722
1839
2015
2160
2175
2064
1873
1709
1661
1750
1927
2085
2134
2057
1887
1722
1648
1693
1842
2026
2127
2079
1930
1751
1642
1663
1802
1978
2135
2167
2076
1904
1744
1703
1790
1959
2124
2187
2109
1935
1762
1680
1730
1889
2077
2176
2142
2009
1840
1727
1738
1862
2038
2169
2185
2064
1887
1731
1696
1791
1966
2127
2186
2112
1939
1771
1682
1735
1903
2092
2195
2170
2022
1835
1708
1714
1843
2031
2163
2167
2055
1872
1712
1678
1767
1935
2128
2223
2163
2000
1820
1725
1771
1925
2117
2231
2203
2070
1889
1773
1788
1919
2112
2252
2267
2162
1971
1835
1808
1887
2032
2192
2254
2175
2012
1841
1751
1790
1922
2093
2193
2175
2046
1872
1728
1727
1854
2032
2175
2186
2071
1889
1743
1701
1793
1968
2137
2203
2138
1975
1798
1722
1766
1910
2096
2224
2225
2127
1995
1919
1966
2129
2343
2522
2588
2506
2309
2106
2003
2045
2171
2262
2240
2075
1821
1579
1438
1479
1648
1851
1999
2023
1919
1759
1664
1693
1825
2003
2149
2173
2078
1926
1790
1754
1840
2010
2191
2279
2224
2062
1887
1791
1838
1981
2162
2262
2239
2103
1920
1803
1819
1965
2159
2304
2336
2224
2036
1872
1827
1913
2089
2259
2323
2260
2096
1936
1849
1904
2069
2245
2357
2333
2194
2015
1895
1895
1993
2207
2366
2416
2335
2184
2033
1977
2059
2222
2386
2468
2419
2277
2124
2035
2087
2224
2398
2503
2479
2346
2165
2038
2037
2159
2339
2480
2491
2371
2179
2018
1966
2039
2208
2368
2435
2370
2201
2006
1909
1936
2065
2217
2323
2289
2142
1950
1807
1787
1904
2090
2227
2246
2125
1936
1755
1699
1772
1952
2101
2183
2130
1968
1790
1699
1730
1867
2042
2155
2128
1990
1813
1696
1721
1850
2021
2164
2179
2071
1889
1718
1662
1738
1903
2064
2122
2047
1892
1728
1650
1711
1865
2046
2155
2128
1979
1793
1663
1664
1792
1975
2121
2160
2064
1889
1744
1694
1789
1955
2118
2178
2111
1933
1776
1688
1727
1867
2044
2174
2163
2035
1857
1731
1741
1859
2034
2183
2210
2099
1923
1763
1717
1793
1946
2123
2194
2144
1997
1835
1747
1787
1936
2112
2229
2221
2112
1946
1831
1827
1936
2097
2223
2235
2130
1958
1807
1776
1879
2064
2234
2306
2226
2043
1843
1738
1762
1873
2061
2173
2160
2020
1855
1733
1741
1856
2034
2178
2206
2107
1927
1774
1719
1793
1951
2112
2180
2121
1968
1807
1707
1744
1878
2038
2154
2128
2004
1859
1776
1824
1986
2210
2404
2481
2423
2278
2130
2064
2108
2243
2375
2395
2258
2028
1780
1598
1535
1646
1797
1903
1885
1743
1586
1481
1511
1661
1865
2039
2083
1985
1833
1706
1680
1787
1971
2155
2234
2177
2019
1845
1754
1793
1943
2131
2250
2224
2077
1886
1748
1744
1857
2031
2178
2206
2119
1953
1799
1744
1817
1985
2171
2248
2176
2016
1840
1744
1794
1961
2176
2311
2293
2140
1939
1794
1773
1902
2081
2244
2287
2198
2026
1856
1808
1914
2101
2263
2329
2273
2134
1959
1872
1920
2084
2261
2384
2382
2256
2078
1927
1926
2045
2219
2358
2383
2261
2081
1918
1872
1951
2115
2271
2329
2256
2096
1903
1791
1840
1973
2146
2239
2201
2063
1865
1712
1681
1779
1947
2093
2118
2009
1839
1665
1615
1698
1872
2021
2093
2028
1869
1680
1567
1587
1722
1904
2032
2029
1909
1739
1606
1594
1695
1860
2003
2039
1943
1776
1621
1585
1667
1842
2022
2106
2043
1882
1692
1583
1612
1759
1935
2066
2058
1918
1757
1621
1598
1714
1911
2037
2064
1958
1777
1617
1564
1648
1823
2002
2099
2039
1872
1694
1599
1636
1779
1963
2093
2093
1969
1803
1677
1676
1798
1985
2142
2166
2054
1858
1696
1647
1719
1907
2096
2171
2117
1964
1791
1685
1719
1862
2064
2171
2154
2027
1853
1711
1692
1813
2000
2159
2187
2071
1879
1713
1660
1746
1930
2102
2176
2123
1982
1802
1711
1744
1888
2068
2191
2178
2053
1856
1712
1690
1797
1975
2128
2161
2059
1871
1702
1635
1705
1867
2035
2119
2071
1924
1759
1664
1695
1838
2038
2178
2176
2019
1812
1655
1641
1760
1937
2096
2128
2032
1879
1759
1744
1872
2096
2320
2459
2453
2337
2176
2043
2023
2125
2235
2278
2185
1969
1697
1471
1392
1473
1648
1827
1899
1828
1675
1526
1487
1596
1794
1997
2115
2084
1937
1774
1680
1725
1863
2032
2145
2132
2015
1851
1712
1693
1803
1977
2124
2149
2064
1898
1745
1684
1750
1915
2096
2182
2130
1988
1825
1725
1754
1901
2080
2203
2202
2079
1910
1779
1781
1899
2080
2224
2259
2163
1986
1830
1783
1871
2034
2217
2293
2246
2102
1939
1865
1904
2058
2251
2379
2368
2256
2077
1919
1900
2027
2225
2384
2429
2340
2169
2006
1943
2010
2176
2352
2426
2361
2195
2000
1882
1904
2037
2213
2330
2309
2167
1967
1813
1793
1902
2069
2213
2239
2130
1945
1783
1723
1790
1926
2111
2178
2112
1942
1772
1664
1696
1831
