1424
1579
1854
2100
2174
2038
1759
1486
1385
1498
1776
2064
2207
2128
1881
1597
1412
1454
1720
2000
2207
2196
1995
1687
1481
1456
1639
1927
2178
2242
2103
1822
1558
1463
1587
1856
2147
2302
2225
1973
1695
1527
1571
1803
2107
2303
2287
2093
1808
1574
1553
1748
2064
2318
2375
2225
1951
1701
1595
1693
1951
2235
2384
2303
2047
1773
1614
1648
1840
2118
2305
2287
2083
1783
1567
1553
1726
2001
2254
2304
2157
1872
1602
1494
1616
1882
2165
2317
2253
1995
1701
1531
1587
1818
2102
2275
2241
2042
1776
1595
1619
1837
2192
2490
2601
2495
2256
2031
1961
2091
2343
2559
2646
2495
2165
1804
1575
1564
1728
1934
2047
1989
1776
1487
1327
1358
1595
1915
2192
2266
2126
1856
1616
1557
1698
1954
2205
2334
2263
2032
1778
1633
1699
1947
2253
2451
2432
2222
1917
1697
1690
1886
2190
2430
2480
2315
2029
1776
1683
1808
2086
2366
2489
2385
2129
1831
1679
1758
2003
2307
2511
2517
2310
2002
1772
1747
1936
2243
2496
2555
2405
2128
1876
1812
1939
2224
2496
2621
2518
2268
1986
1834
1903
2147
2439
2640
2610
2384
2087
1881
1890
2099
2389
2626
2675
2514
2240
1996
1926
2071
2356
2642
2755
2640
2363
2091
1933
2000
2256
2551
2741
2701
2462
2153
1914
1890
2063
2329
2547
2559
2384
2089
1814
1733
1872
2141
2375
2457
2340
2064
1761
1616
1680
1897
2192
2351
2313
2096
1788
1599
1609
1821
2113
2335
2353
2180
1879
1616
1563
1705
1970
2238
2349
2239
1971
1691
1535
1616
1872
2167
2331
2279
2057
1751
1557
1569
1782
2095
2328
2362
2198
1891
1636
1562
1691
1974
2233
2330
2218
1943
1664
1532
1627
1889
2185
2340
2285
2044
1755
1557
1583
1792
2094
2318
2351
2173
1873
1635
1570
1718
1999
2264
2367
2259
1984
1695
1559
1638
1915
2220
2399
2355
2128
1813
1600
1613
1837
2143
2355
2370
2194
1906
1663
1600
1750
2038
2310
2413
2291
2023
1749
1633
1727
1973
2256
2416
2363
2128
1834
1646
1663
1862
2160
2371
2384
2215
1934
1700
1648
1815
2083
2340
2421
2291
2007
1753
1654
1765
2032
2317
2470
2398
2155
1851
1657
1678
1898
2209
2431
2439
2250
1946
1699
1659
1825
2122
2384
2467
2347
2089
1823
1719
1811
2066
2350
2505
2445
2218
1930
1746
1791
2041
2343
2544
2541
2349
2069
1837
1786
1927
2195
2445
2533
2393
2117
1840
1725
1821
2072
2345
2482
2410
2166
1862
1691
1731
1945
2231
2434
2447
2246
1947
1712
1671
1843
2143
2413
2496
2349
2073
1806
1681
1776
2022
2311
2449
2384
2167
1913
1791
1884
2181
2541
2810
2854
2688
2416
2187
2134
2240
2468
2665
2673
2469
2111
1744
1535
1573
1792
2071
2224
2178
1953
1680
1523
1598
1856
2187
2416
2419
2237
1959
1746
1722
1895
2198
2461
2535
2406
2126
1840
1727
1838
2112
2386
2541
2478
2243
1958
1787
1817
2032
2321
2533
2535
2346
2039
1817
1792
1967
2263
2511
2579
2437
2157
1884
1782
1898
2170
2444
2585
2511
2279
1984
1815
1874
2113
2416
2624
2605
2406
2130
1915
1899
2091
2385
2647
2703
2528
2237
1985
1907
2032
2306
2598
2742
2669
2423
2142
1967
2021
2270
2582
2787
2768
2555
2263
2047
2032
2209
2483
2723
2784
2631
2347
2081
1983
2111
2386
2672
2807
2706
2423
2108
1943
1984
2201
2479
2671
2640
2412
2098
1869
1837
1999
2285
2515
2555
2379
2077
1797
1700
1825
2103
2371
2494
2402
2131
1823
1648
1687
1931
2245
2448
2419
2193
1875
1671
1662
1856
2157
2399
2442
2279
1984
1722
1635
1771
2043
2315
2428
2342
2102
1814
1664
1740
1980
2277
2455
2422
2209
1936
1731
1729
1920
2192
2416
2455
2288
2005
1745
1655
1790
2064
2333
2443
2353
2109
1822
1679
1747
1989
2273
2454
2431
2219
1907
1680
1687
1879
2163
2397
2447
2292
2021
1780
1717
1856
2131
2399
2513
2408
2127
1814
1659
1712
1962
2268
2463
2437
2230
1943
1731
1729
1932
2226
2448
2479
2309
2007
1757
1694
1857
2142
2423
2531
2422
2157
1865
1712
1775
2020
2315
2473
2438
2250
1962
1758
1757
1951
2246
2481
2509
2337
2047
1793
1713
1851
2145
2405
2495
2384
2128
1850
1711
1776
2032
2327
2502
2486
2270
1966
1748
1744
1943
2253
2482
2519
2356
2065
1815
1746
1871
2177
2448
2543
2426
2155
1904
1795
1882
2127
2406
2559
2506
2271
1988
1818
1838
2038
2331
2542
2539
2353
2071
1819
1747
1889
2177
2423
2489
2352
2081
1795
1680
1781
2045
2333
2501
2457
2227
1921
1725
1739
1938
2244
2457
2467
2271
1998
1759
1712
1871
2162
2437
2528
2401
2148
1872
1759
1884
2183
2518
2737
2752
2559
2324
2159
2193
2414
2701
2881
2839
2601
2235
1892
1730
1791
1989
2183
2231
2085
1821
1535
1456
1586
1878
2225
2387
2339
2126
1859
1698
1748
1984
2295
2503
2490
2290
2005
1777
1744
1901
2207
2480
2559
2433
2175
1906
1774
1857
2119
2401
2551
2480
2250
1957
1772
1813
2038
2339
2553
2559
2379
2090
1843
1799
1964
2239
2497
2586
2453
2189
1923
1805
1895
2156
2448
2608
2541
2308
2037
1875
1903
2095
2366
2591
2615
2445
2182
1955
1920
2096
2382
2643
2725
2583
2301
2018
1920
2047
2335
2628
2771
2699
2464
2192
2021
2032
2227
2519
2750
2771
2587
2287
2045
2007
2184
2471
2715
2768
2603
2291
1985
1859
1983
2272
2577
2739
2687
2474
2229
2112
2195
2438
2759
2991
3001
2804
2509
2278
2236
2401
2704
2966
3061
2928
2645
2364
2255
2358
2623
2897
3038
2956
2702
2403
2209
2236
2457
2757
2983
2983
2786
2466
2218
2181
2354
2655
2918
2975
2830
2546
2274
2164
2266
2519
2789
2901
2816
2559
2281
2119
2175
2399
2672
2846
2827
2618
2322
2109
2101
2279
2559
2800
2837
2684
2401
2151
2055
2174
2431
2694
2811
2707
2448
2181
2019
2064
2286
2559
2767
2737
2525
2233
2013
1998
2189
2486
2738
2794
2624
2326
2081
1987
2089
2337
2608
2765
2679
2421
2128
1953
1995
2227
2507
2693
2672
2459
2155
1911
1878
2059
2334
2559
2621
2458
2187
1923
1841
1977
2247
2503
2624
2518
2271
1980
1814
1862
2101
2393
2559
2525
2295
1991
1776
1767
1953
2252
2483
2522
2366
2095
1827
1747
1874
2148
2415
2532
2443
2202
1939
1811
1903
2176
2482
2691
2686
2480
2183
1963
1945
2133
2416
2653
2701
2557
2279
2028
1941
2067
2342
2611
2730
2640
2381
2096
1933
1993
2229
2507
2694
2681
2472
2176
1963
1974
2188
2478
2719
2749
2558
2252
1955
1867
1999
2281
2559
2679
2535
2238
1953
1820
1879
2111
2391
2579
2546
2323
2032
1813
1803
1984
2275
2508
2537
2357
2061
1794
1705
1829
2102
2363
2482
2384
2130
1853
1712
1785
2032
2352
2553
2559
2425
2198
2047
2098
2327
2651
2894
2919
2691
2334
2007
1853
1897
2078
2253
2278
2114
1823
1535
1395
1488
1761
2083
2284
2269
2090
1807
1626
1655
1867
2171
2387
2423
2250
1955
1710
1667
1825
2102
2365
2465
2343
2081
1794
1663
1749
2047
2443
2725
2805
2695
2505
2384
2455
2709
3053
3340
3406
3223
2910
2654
2585
2734
3042
3358
3491
3355
3058
2774
2647
2736
2991
3303
3493
3424
3161
2838
2630
2641
2855
3174
3440
3481
3263
2928
2671
2607
2748
3041
3330
3419
3291
3002
2704
2559
2663
2942
3248
3439
3379
3120
2804
2597
2589
2791
3093
3357
3367
3153
2839
2591
2512
2640
2918
3197
3297
3166
2874
2588
2439
2501
2722
2966
3097
3021
2778
2471
2256
2246
2426
2701
2901
2905
2697
2384
2137
2079
2224
2473
2704
2769
2632
2346
2058
1903
1962
2200
2467
2622
2556
2331
2037
1847
1859
2057
2327
2539
2559
2377
2081
1833
1782
1907
2219
2485
2559
2419
2128
1840
1714
1799
2064
2347
2497
2438
2189
1873
1675
1703
1924
2231
2449
2442
2227
1913
1669
1638
1805
2079
2327
2411
2283
1999
1723
1617
1741
1997
2266
2398
2305
2053
1748
1569
1622
1842
2129
2325
2317
2130
1840
1616
1599
1775
2059
2299
2365
2229
1947
1670
1535
1642
1893
2179
2315
2246
2000
1693
1502
1535
1776
2080
2293
2288
2079
1793
1567
1516
1678
1968
2226
2310
2175
1878
1604
1475
1563
1824
2111
2259
2195
1954
1650
1468
1504
1722
2009
2209
2197
2000
1715
1493
1459
1619
1904
2135
2171
2027
1771
1516
1425
1535
1828
2125
2255
2176
1935
1661
1504
1561
1792
2082
2287
2287
2089
1782
1530
1495
1697
2007
2284
2363
2222
1950
1666
1583
1728
1995
2267
2400
2331
2101
1821
1663
1694
1934
2224
2409
2390
2199
1914
1712
1711
1887
2162
2387
2445
2295
2006
1731
1633
1744
2023
2323
2483
2409
2160
1859
1691
1712
1896
2165
2350
2340
2128
1808
1570
1535
1715
2000
2243
2302
2151
1857
1586
1472
1589
1846
2113
2238
2167
1913
1639
1487
1535
1789
2096
2289
2261
2054
1766
1535
1563
1789
2128
2410
2494
2401
2186
1995
1993
2198
2539
2867
3033
2967
2717
2415
2192
2182
2352
2559
2651
2518
2221
1849
1582
1532
1726
2031
2294
2375
2225
1981
1757
1697
1851
2146
2427
2559
2490
2243
1951
1799
1842
2073
2361
2546
2523
2328
2031
1807
1787
1981
2286
2519
2581
2422
2155
1895
1802
1925
2192
2451
2559
2469
2215
1938
1803
1856
2102
2397
2559
2516
2297
2010
1813
1818
2005
2283
2525
2559
2411
2138
1872
1773
1889
2167
2439
2579
2485
2234
1943
1783
1854
2111
2416
2618
2609
2385
2094
1879
1875
2070
2368
2607
2639
2454
2172
1933
1867
2005
2291
2559
2693
2607
2342
2037
1870
1921
2167
2453
2641
2611
2380
2086
1860
1843
2015
2288
2498
2530
2364
2070
1799
1725
1856
2118
2352
2422
2289
2023
1728
1562
1619
1854
2131
2293
2233
1989
1687
1475
1486
1691
1974
2191
2213
2017
1717
1442
1357
1490
1785
2066
2165
2046
1791
1530
1394
1456
1682
1973
2163
2134
1906
1618
1411
1413
1600
1900
2128
2146
1972
1679
1421
1366
1527
1808
2043
2121
2007
1745
1462
1330
1418
1671
1967
2138
2097
1859
1570
1390
1418
1614
1894
2120
2160
1977
1680
1424
1359
1503
1781
2043
2152
2015
1759
1482
1356
1445
1727
2000
2166
2121
1883
1569
1373
1392
1614
1897
2095
2096
1920
1649
1410
1361
1523
1822
2089
2178
2065
1794
1523
1392
1474
1729
2021
2186
2121
1874
1586
1406
1429
1650
1942
2161
2170
1984
1687
1445
1383
1535
1819
2112
2199
2082
1819
1535
1422
1503
1751
2029
2187
2133
1895
1600
1411
1451
1665
1964
2175
2182
2000
1711
1467
1415
1579
1860
2141
2256
2151
1883
1606
1467
1569
1813
2097
2247
2192
1954
1651
1461
1499
1719
2034
2253
2258
2066
1773
1520
1475
1645
1934
2202
2288
2182
1905
1625
1502
1601
1870
2161
2304
2223
1989
1712
1535
1586
1823
2118
2328
2336
2158
1881
1647
1584
1733
2023
2286
2354
2224
1936
1683
1559
1661
1921
2197
2318
2234
1969
1676
1503
1535
1765
2057
2273
2283
2099
1807
1561
1527
1687
1963
2214
2293
2163
1888
1619
1499
1602
1871
2158
2311
2255
2009
1713
1509
1535
1818
2177
2457
2534
2411
2185
2000
1991
2177
2455
2690
2715
2506
2170
1819
1605
1605
1776
1969
2046
1939
1689
1409
1277
1362
1654
1968
2208
2245
2076
1814
1611
1593
1757
2039
2294
2370
2234
1946
1689
1591
1709
1974
2241
2381
2318
2094
1807
1632
1680
1904
2195
2403
2405
2205
1906
1683
1667
1853
2149
2399
2465
2305
2009
1742
1651
1778
2046
2338
2467
2379
2126
1840
1673
1727
1961
2269
2463
2445
2241
1946
1733
1721
1919
2229
2484
2559
2426
2151
1887
1795
1917
2192
2495
2641
2559
2299
1995
1823
1873
2134
2455
2667
2659
2464
2176
1954
1921
2086
2363
2619
2688
2537
2246
1970
1872
1991
2267
2525
2662
2587
2338
2075
1919
1950
2161
2416
2583
2546
2322
2013
1796
1776
1933
2199
2423
2463
2304
2009
1739
1635
1746
1982
2243
2358
2263
1997
1708
1531
1580
1796
2081
2265
2228
2019
1728
1505
1501
1664
1979
2240
2304
2160
1870
1593
1488
1615
1878
2150
2259
2161
1909
1631
1476
1535
1798
2102
2293
2269
2058
1743
1535
1525
1707
1982
2219
2281
2133
1869
1611
1503
1622
1905
2195
2320
2225
1968
1668
1505
1578
1815
2118
2313
2290
2091
1790
1585
1575
1758
2035
2288
2343
2186
1905
1667
1584
1691
1943
2207
2320
2240
1991
1710
1567
1636
1867
2169
2363
2342
2111
1817
1610
1607
1803
2091
2321
2374
2220
1936
1681
1589
1707
1981
2255
2374
2281
2021
1739
1584
1648
1887
2179
2368
2352
2150
1865
1661
1640
1813
2096
2321
2370
2228
1955
1690
1600
1712
1982
2258
2378
2278
2005
1740
1606
1680
1925
2225
2405
2362
2139
1845
1631
1616
1803
2107
2352
2389
2229
1940
1693
1613
1743
2011
2289
2410
2318
2062
1775
1625
1703
1967
2265
2431
2389
2176
1874
1677
1685
1904
2192
2427
2466
2319
2047
1797
1723
1851
2134
2411
2507
2394
2123
1839
1701
1777
2026
2307
2464
2407
2173
1854
1637
1639
1843
2149
2384
2401
2210
1917
1682
1631
1776
2064
2333
2437
2320
2059
1763
1617
1705
1962
2242
2404
2345
2124
1845
1669
1696
1895
2209
2471
2544
2427
2201
2023
2013
2192
2484
2752
2838
2704
2384
2065
1853
1855
2030
2224
2288
2149
1840
1489
1283
1325
1586
1935
2205
2258
2112
1851
1623
1587
1755
2064
2341
2447
2334
2082
1808
1680
1745
1968
2256
2432
2386
2169
1892
1712
1736
1951
2256
2469
2480
2295
2006
1765
1702
1843
2128
2383
2480
2373
2114
1827
1712
1819
2107
2387
2554
2502
2275
1968
1767
1781
1977
2258
2485
2518
2352
2082
1855
1813
1983
2263
2515
2618
2473
2191
1926
1815
1931
2205
2491
2655
2608
2385
2113
1934
1967
2192
2482
2688
2688
2496
2206
1975
1932
2093
2368
2626
2715
2586
2317
2065
1943
2030
2278
2557
2720
2673
2432
2119
1918
1904
2099
2407
2627
2626
2406
2097
1841
1791
1935
2193
2430
2499
2363
2078
1778
1641
1721
1965
2242
2386
2318
2064
1745
1535
1535
1744
2047
2277
2288
2105
1805
1535
1489
1655
1948
2215
2299
2164
1895
1637
1511
1598
1854
2147
2293
2225
1983
1685
1509
1553
1766
2054
2261
2271
2080
1775
1535
1513
1682
1963
2214
2299
2160
1882
1611
1494
1605
1871
2135
2285
2239
2004
1719
1530
1579
1811
2112
2303
2287
2096
1791
1553
1527
1718
2009
2263
2340
2203
1920
1650
1535
1662
1926
2203
2326
2240
1990
1719
1556
1606
1829
2123
2337
2349
2142
1836
1598
1574
1746
2032
2288
2367
2234
1950
1670
1558
1666
1925
2216
2355
2288
2038
1747
1555
1595
1831
2133
2335
2331
2147
1871
1648
1606
1769
2045
2294
2364
2227
1942
1667
1571
1685
1966
2254
2400
2319
2064
1765
1599
1648
1870
2169
2363
2358
2165
1875
1651
1629
1802
2071
2307
2363
2225
1951
1694
1604
1729
1995
2263
2386
2301
2054
1776
1616
1663
1891
2191
2383
2381
2189
1902
1697
1691
1856
2127
2371
2430
2285
2014
1767
1664
1777
2036
2334
2485
2403
2163
1868
1678
1699
1930
2224
2405
2366
2149
1852
1629
1596
1766
2067
2309
2368
2222
1936
1680
1616
1756
2032
2304
2421
2322
2064
1760
1600
1661
1894
2187
2369
2341
2130
1847
1637
1616
1803
2115
2382
2463
2341
2123
1935
1910
2093
2395
2699
2849
2768
2479
2144
1905
1873
2022
2223
2324
2224
1926
1569
1319
1305
1509
1843
2132
2218
2082
1838
1600
1533
1682
1975
2258
2384
2299
2042
1770
1630
1711
1938
2230
2412
2395
2189
1883
1654
1655
1869
2162
2384
2432
2287
1994
1742
1664
1791
2062
2320
2431
2333
2087
1806
1651
1709
1941
2243
2431
2401
2206
1931
1733
1738
1920
2210
2441
2495
2345
2047
1779
1701
1841
2127
2409
2521
2425
2165
1878
1744
1819
2070
2378
2589
2557
2338
2064
1867
1876
2093
2390
2624
2661
2494
2211
1946
1857
1988
2269
2559
2697
2593
2320
2042
1871
1935
2192
2496
2675
2641
2426
2158
1949
1945
2114
2371
2577
2608
2415
2095
1811
1740
1885
2173
2435
2539
2416
2120
1787
1600
1648
1888
2197
2386
2352
2128
1817
1600
1591
1791
2090
2289
2306
2147
1869
1616
1535
1669
1935
2205
2313
2211
1959
1683
1531
1586
1825
2119
2303
2266
2037
1734
1517
1520
1730
2032
2251
2282
2112
1813
1552
1466
1621
1905
2188
2300
2188
1927
1664
1519
1598
1853
2163
2342
2306
2084
1787
1583
1586
1787
2079
2289
2309
2151
1875
1625
1555
1715
2001
2259
2362
2255
1985
1695
1554
1626
1856
2145
2325
2281
2039
1742
1555
1583
1785
2103
2321
2352
2194
1904
1654
1602
1744
2022
2288
2372
2287
2012
1741
1603
1692
1947
2240
2403
2358
2126
1821
1616
1623
1840
2146
2367
2372
2198
1917
1683
1634
1810
2062
2301
2382
2258
1990
1691
1535
1635
1905
2214
2393
2339
2109
1819
1623
1616
1803
2095
2320
2359
2201
1919
1667
1610
1771
2055
2315
2406
2283
2019
1747
1625
1710
1951
2246
2415
2361
2128
1830
1639
1657
1869
2165
2390
2411
2242
1968
1739
1690
1853
2141
2402
2481
2347
2059
1758
1637
1746
2027
2313
2465
2416
2174
1870
1678
1683
1867
2123
2318
2317
2128
1838
1610
1562
1713
1998
2256
2332
2206
1936
1671
1535
1647
1920
2208
2353
2294
2045
1744
1535
1581
1808
2109
2326
2357
2205
1954
1770
1797
2039
2402
2716
2835
2736
2434
2128
1949
1984
2175
2384
2452
2299
1961
1584
1329
1321
1517
1809
2026
2071
1914
1661
1459
1456
1661
1979
2257
2352
2237
1963
1692
1578
1664
1911
2202
2367
2317
2096
1810
1636
1680
1904
2182
2374
2371
2183
1915
1705
1669
1826
2119
2350
2421
2285
2002
1728
1601
1706
1968
2260
2419
2373
2160
1872
1683
1715
1943
2253
2475
2475
2279
1969
1722
1683
1859
2147
2391
2479
2365
2115
1865
1771
1867
2138
2413
2519
2450
2229
1964
1797
1851
2096
2397
2613
2609
2404
2122
1905
1887
2063
2342
2593
2665
2525
2256
1997
1894
2000
2259
2541
2678
2602
2353
2074
1895
1910
2119
2400
2608
2609
2406
2103
1839
1778
1923
2213
2450
2511
2356
2062
1774
1648
1747
2011
2295
2415
2314
2047
1735
1535
1592
1826
2129
2308
2300
2099
1785
1554
1520
1712
2000
2251
2329
2192
1909
1635
1526
1631
1868
2128
2269
2191
1943
1671
1497
1535
1765
2047
2243
2237
2032
1751
1532
1506
1678
1974
2235
2305
2165
1882
1601
1487
1594
1867
2156
2290
2215
1984
1695
1525
1583
1794
2111
2293
2263
2059
1770
1572
1535
1726
2021
2273
2352
2230
1954
1683
1559
1647
1905
2192
2331
2256
1998
1703
1535
1602
1834
2128
2332
2334
2122
1819
1594
1571
1735
2015
2257
2320
2165
1890
1638
1553
1662
1906
2190
2323
2251
1999
1735
1575
1630
1847
2129
2316
2301
2093
1797
1586
1573
1754
2059
2311
2375
2223
1936
1680
1581
1665
1905
2193
2337
2255
2006
1738
1581
1639
1878
2174
2364
2325
2112
1820
1607
1584
1765
2064
2314
2363
2205
1920
1659
1574
1699
1963
2242
2374
2287
2031
1754
1607
1667
1904
2193
2384
2369
2155
1865
1666
1664
1856
2133
2384
2463
2331
2057
1797
1694
1808
2080
2345
2451
2327
2032
1739
1578
1646
1891
2187
2357
2317
2105
1818
1613
1606
1791
2087
2317
2373
2215
1919
1653
1579
1710
1994
2268
2378
2275
2005
1718
1567
1646
1918
2274
2554
2669
2605
2443
2350
2447
2737
3150
3520
3665
3472
3141
2819
2670
2711
2914
3111
3138
2935
2598
2256
2080
2145
2416
2750
2975
2963
2775
2515
2344
2357
2559
2864
3120
3182
3013
2723
2450
2369
2499
2779
3056
3185
3061
2789
2512
2391
2470
2704
3006
3209
3161
2890
2578
2368
2372
2535
2833
3094
3142
2967
2678
2416
2329
2454
2730
2985
3098
2995
2736
2474
2333
2387
2619
2911
3113
3061
2818
2512
2302
2293
2493
2785
3021
3052
2864
2579
2331
2271
2414
2698
2973
3080
2966
2705
2425
2288
2353
2607
2896
3070
3009
2764
2467
2278
2279
2479
2783
3024
3066
2881
2559
2320
2244
2384
2643
2897
3013
2902
2624
2327
2170
2223
2449
2728
2896
2843
2593
2270
2047
2031
2215
2483
2695
2718
2530
2235
1954
1866
1985
2249
2497
2579
2447
2165
1883
1744
1804
2047
2352
2524
2450
2192
1894
1681
1683
1872
2141
2363
2390
2235
1958
1711
1637
1773
2047
2310
2407
2288
2004
1735
1585
1661
1908
2190
2357
2322
2122
1835
1629
1630
1825
2117
2338
2361
2180
1893
1643
1569
1708
1971
2241
2346
2240
1967
1673
1519
1605
1862
2149
2305
2262
2043
1767
1581
1584
1766
2054
2288
2311
2134
1839
1591
1514
1649
1930
2187
2278
2158
1870
1586
1466
1570
1834
2126
2303
2259
2035
1754
1554
1563
1758
2034
2259
2299
2129
1826
1567
1509
1669
1942
2210
2297
2169
1881
1598
1456
1535
1808
2114
2284
2229
1990
1702
1507
1527
1743
2027
2237
2256
2075
1775
1523
1475
1623
1910
2171
2261
2153
1898
1622
1482
1566
1799
2071
2229
2171
1936
1639
1456
1491
1702
1991
2208
2224
2035
1735
1488
1455
1630
1919
2183
2275
2158
1891
1620
1503
1597
1839
2135
2315
2258
2035
1750
1565
1583
1805
2109
2326
2337
2146
1837
1582
1519
1677
1949
2176
2256
2121
1841
1566
1456
1523
1787
2076
2225
2161
1927
1626
1463
1473
1680
1968
2192
2197
1999
1722
1486
1442
1615
1891
2141
2214
2090
1819
1535
1426
1535
1799
2107
2299
2304
2133
1909
1792
1873
2128
2430
2640
2625
2394
2058
1746
1621
1698
1889
2054
2047
1847
1525
1230
1101
1205
1497
1808
2009
2000
1823
1573
1407
1445
1687
2001
2203
2199
2019
1728
1486
1442
1609
1884
2147
2236
2106
1822
1573
1459
1562
1825
2115
2256
2199
1971
1691
1515
1535
1770
2070
2286
2304
2128
1841
1599
1559
1723
2003
2251
2318
2194
1936
1666
1552
1659
1933
2224
2378
2302
2070
1791
1614
1653
1863
2162
2369
2370
2189
1923
1713
1693
1867
2146
2416
2498
2362
2090
1808
1711
1823
2097
2386
2537
2462
2223
1936
1785
1827
2057
2352
2559
2559
2363
2067
1836
1795
1967
2240
2475
2545
2421
2156
1872
1745
1835
2098
2379
2501
2407
2146
1845
1657
1685
1899
2175
2361
2340
2123
1808
1565
1514
1673
1960
2217
2274
2125
1827
1554
1430
1535
1795
2079
2224
2150
1920
1606
1424
1456
1679
1975
2179
2175
1971
1683
1454
1413
1591
1879
2131
2209
2079
1797
1522
1407
1515
1794
2088
2222
2130
1868
1580
1408
1472
1715
2011
2211
2207
2001
1717
1486
1470
1629
1933
2185
2247
2098
1831
1535
1447
1566
1840
2124
2253
2165
1919
1634
1462
1516
1739
2031
2240
2244
2054
1759
1523
1489
1675
1970
2224
2276
2129
1840
1571
1483
1602
1885
2183
2318
2233
1981
1703
1530
1582
1807
2118
2320
2302
2098
1808
1618
1600
1776
2059
2302
2357
2217
1951
1687
1590
1698
1969
2243
2380
2307
2069
1776
1605
1650
1869
2143
2302
2283
2096
1831
1622
1617
1809
2103
2347
2403
2256
1974
1703
1604
1728
2001
2288
2416
2324
2081
1794
1624
1669
1896
2191
2395
2384
2187
1897
1664
1639
1819
2103
2347
2409
2257
1983
1729
1619
1726
1987
2291
2459
2390
2128
1831
1677
1744
1974
2253
2434
2423
2215
1913
1695
1689
1875
2163
2387
2409
2224
1931
1650
1535
1671
1937
2230
2362
2277
2025
1740
1579
1644
1887
2174
2346
2315
2097
1792
1575
1568
1749
2045
2301
2351
2195
1917
1648
1535
1684
1984
2302
2495
2487
2315
2106
1987
2090
2325
2608
2783
2727
2457
2108
1812
1712
1803
1993
2134
2097
1886
1598
1344
1280
1438
1755
2075
2231
2171
1936
1664
1520
1613
1872
2179
2368
2352
2159
1870
1661
1649
1852
2154
2374
2415
2266
1994
1742
1648
1774
2053
2326
2448
2362
2099
1807
1655
1727
1971
2266
2437
2400
2181
1898
1699
1700
1899
2183
2420
2477
2320
2045
1778
1703
1843
2125
2388
2501
2397
2139
1865
1725
1805
2047
2346
2528
2496
2291
2010
1808
1810
2019
2303
2531
2581
2426
2158
1911
1840
1981
2272
2547
2661
2559
2304
2032
1879
1929
2176
2463
2640
2616
2394
2118
1905
1914
2107
2391
2627
2657
2481
2197
1931
1835
1958
2240
2503
2613
2483
2203
1902
1751
1814
2047
2321
2490
2448
2230
1920
1691
1657
1814
2095
2305
2330
2160
1872
1615
1522
1637
1897
2166
2283
2192
1936
1661
1520
1605
1840
2127
2303
2269
2031
1744
1527
1503
1678
1982
2227
2277
2128
1853
1595
1519
1659
1931
2191
2307
2218
1951
1660
1491
1565
1808
2102
2281
2235
2011
1729
1535
1530
1718
2000
2251
2291
2138
1867
1625
1535
1671
1941
2213
2309
2192
1941
1673
1535
1619
1869
2160
2323
2275
2063
1776
1574
1582
1771
2042
2277
2324
2171
1891
1648
1578
1694
1947
2223
2351
2258
1987
1691
1535
1618
1857
2145
2331
2297
2091
1799
1599
1611
1818
2115
2334
2366
2205
1919
1664
1593
1738
2009
2284
2381
2270
1998
1722
1584
1643
1899
2191
2363
2320
2095
1780
1578
1599
1808
2115
2351
2382
2213
1925
1681
1616
1765
2046
2304
2385
2262
1984
1723
1611
1709
1948
2215
2373
2326
2107
1800
1600
1601
1831
2146
2385
2415
2226
1938
1707
1638
1780
2067
2326
2427
2315
2057
1777
1646
1734
1993
2289
2459
2412
2191
1890
1681
1680
1870
2155
2366
2380
2201
1911
1655
1587
1730
2010
2272
2376
2259
2011
1742
1602
1683
1942
2209
2359
2307
2093
1794
1614
1629
1835
2128
2361
2386
2210
1936
1719
1680
1846
2165
2467
2621
2559
2367
2129
2014
2114
2363
2609
2718
2608
2309
1942
1669
1599
1712
1903
2047
2023
1843
1567
1360
1345
1535
1873
2135
2256
2167
1915
1649
1530
1630
1889
2181
2352
2326
2103
1798
1599
1632
1856
2159
2371
2394
2222
1933
1695
1635
1774
2054
2318
2414
2304
2055
1791
1667
1751
1999
2288
2432
2355
2103
1817
1651
1693
1915
2227
2452
2490
2320
2031
1769
1686
1845
2142
2413
2512
2410
2135
1855
1716
1802
2066
2374
2551
2514
2290
1994
1815
1831
2016
2303
2523
2545
2399
2141
1898
1844
1991
2277
2545
2647
2533
2277
2003
1894
1999
2240
2514
2680
2625
2379
2077
1881
1897
2097
2385
2601
2599
2401
2114
1875
1808
1931
2189
2434
2529
2416
2132
1819
1670
1745
1983
2256
2398
2314
2061
1747
1553
1584
1786
2057
2251
2255
2065
1771
1535
1489
1646
1905
2160
2253
2134
1859
1605
1504
1603
1859
2127
2277
2219
1982
1680
1486
1515
1737
2022
2255
2259
2079
1777
1530
1487
1654
1950
2213
2289
2151
1871
1602
1462
1535
1787
2065
2219
2162
1926
1649
1473
1516
1739
2017
2221
2223
2037
1776
1521
1477
1667
1958
2211
2301
2184
1919
1652
1535
1629
1883
2175
2321
2256
2017
1745
1566
1593
1794
2082
2283
2300
2113
1817
1584
1530
1680
1952
2190
2256
2151
1893
1613
1488
1603
1887
2181
2335
2259
2000
1694
1521
1535
1775
2082
2303
2309
2115
1810
1579
1531
1679
1968
2231
2311
2192
1921
1664
1555
1658
1917
2211
2369
2287
2026
1735
1552
1593
1826
2115
2315
2321
2143
1856
1630
1597
1759
2023
2250
2292
2117
1807
1520
1408
1520
1820
2128
2289
2217
1959
1715
1591
1680
1927
2221
2415
2397
2192
1904
1687
1668
1858
2165
2423
2496
2357
2063
1776
1664
1745
1985
2254
2366
2255
1975
1675
1491
1521
1744
2067
2289
2298
2115
1841
1623
1600
1767
2047
2297
2339
2166
1844
1535
1406
1483
1755
2046
2223
2176
1943
1696
1566
1627
1853
2145
2359
2390
2257
2047
1901
1946
2186
2513
2797
2874
2704
2368
2029
1845
1861
2030
2213
2271
2110
1776
1413
1182
1195
1408
1705
1904
1938
1871
1707
1557
1557
1723
1968
2160
2187
2021
1719
1392
1201
1295
1617
1989
2235
2253
2086
1847
1697
1728
1932
2198
2384
2384
2207
1935
1748
1761
1949
2227
2465
2531
2381
2093
1819
1712
1824
2088
2356
2475
2381
2128
1819
1629
1654
1854
2122
2306
2303
2121
1844
1643
1618
1808
2055
2297
2370
2257
2022
1792
1739
1851
2107
2366
2477
2378
2095
1776
1593
1629
1853
2177
2422
2475
2330
2066
1876
1875
2064
2354
2611
2672
2514
2228
1959
1865
1968
2218
2479
2595
2505
2239
1919
1723
1763
1978
2263
2463
2465
2262
1945
1687
1637
1828
2134
2390
2445
2268
1958
1658
1511
1613
1893
2211
2355
2267
2002
1694
1499
1525
1734
1973
2143
2126
1937
1663
1445
1410
1566
1819
2032
2081
1937
1680
1437
1360
1519
1807
2086
2224
2143
1893
1605
1430
1457
1649
1914
2069
2032
1841
1599
1425
1444
1636
1909
2129
2155
1989
1711
1445
1360
1491
1787
2081
2209
2135
1909
1653
1487
1523
1735
1984
2135
2102
1888
1584
1328
1299
1500
1835
2113
2197
2062
1769
1486
1399
1535
1843
2169
2326
2251
1999
1703
1520
1535
1719
1973
2121
2076
1887
1633
1431
1420
1602
1891
2138
2224
2121
1883
1639
1535
1661
1920
2185
2282
2176
1897
1584
1412
1475
1728
2017
2211
2199
2002
1712
1485
1469
1675
1967
2206
2257
2111
1826
1563
1466
1578
1818
2066
2188
2102
1846
1570
1407
1455
1690
1993
2207
2205
2009
1722
1488
1447
1605
1872
2102
2149
1971
1665
1393
1311
1454
1744
2023
2144
2061
1812
1555
1425
1517
1762
2045
2226
2201
1991
1726
1534
1530
1723
1997
2211
2240
2086
1796
1535
1456
1577
1836
2091
2173
2067
1810
1523
1374
1438
1670
1943
2123
2118
1935
1665
1456
1432
1613
1887
2125
2169
2015
1737
1477
1385
1495
1765
2023
2145
2069
1840
1584
1459
1561
1842
2176
2406
2439
2270
2021
1829
1805
1947
2177
2357
2343
2117
1759
1419
1238
1264
1447
1666
1776
1699
1463
1230
1136
1242
1502
1827
2021
2013
1821
1558
1369
1359
1533
1811
2045
2098
1941
1680
1441
1377
1507
1767
2015
2114
2022
1792
1521
1370
1426
1676
1958
2154
2133
1923
1632
1414
1401
1587
1862
2090
2128
1982
1728
1494
1428
1555
1839
2087
2176
2078
1828
1535
1385
1456
1725
2023
2213
2185
1965
1670
1466
1470
1670
1961
2181
2220
2066
1803
1574
1511
1654
1938
2221
2352
2267
2011
1746
1621
1691
1891
2160
2323
2293
2103
1846
1683
1709
1911
2195
2426
2442
2242
1933
1678
1594
1721
1982
2253
2365
2256
1990
1715
1559
1616
1852
2129
2295
2257
2039
1743
1520
1497
1669
1936
2160
2187
2007
1717
1459
1383
1501
1767
2027
2133
2032
1778
1498
1351
1422
1659
1936
2113
2083
1873
1591
1370
1362
1535
1830
2063
2096
1936
1661
1408
1352
1490
1767
2035
2159
2064
1799
1526
1380
1442
1683
1967
2138
2103
1893
1612
1409
1414
1607
1875
2103
2141
1979
1695
1430
1375
1519
1805
2085
2203
2096
1840
1567
1435
1519
1755
2019
2176
2113
1884
1597
1392
1395
1587
1900
2120
2148
1974
1693
1451
1366
1509
1811
2106
2219
2107
1831
1535
1408
1481
1723
2002
2176
2138
1933
1663
1462
1463
1663
1954
2193
2231
2065
1783
1535
1479
1616
1860
2112
2210
2113
1858
1591
1453
1520
1763
2033
2215
2176
1967
1693
1492
1499
1692
1990
2215
2255
2090
1811
1583
1513
1659
1922
2163
2249
2151
1904
1638
1505
1581
1799
2089
2255
2214
1984
1689
1472
1472
1680
1968
2181
2199
2030
1749
1517
1474
1633
1919
2190
2292
2186
1925
1648
1508
1591
1828
2117
2299
2283
2084
1804
1611
1621
1821
2106
2309
2309
2123
1838
1605
1554
1705
1968
2198
2286
2174
1904
1643
1490
1562
1801
2080
2241
2196
1985
1711
1511
1518
1712
1995
2218
2246
2102
1809
1553
1484
1634
1904
2163
2246
2128
1868
1609
1499
1600
1872
2203
2434
2480
2339
2110
1934
1949
2160
2468
2699
2689
2455
2103
1776
1616
1650
1829
1995
2028
1870
1589
1314
1199
1309
1587
1914
2119
2100
1921
1663
1488
1515
1735
2012
2252
2278
2111
1827
1585
1525
1674
1936
2189
2291
2191
1957
1688
1552
1626
1878
2160
2318
2256
2005
1746
1568
1590
1811
2128
2347
2372
2205
1919
1686
1649
1806
2074
2307
2385
2256
1993
1735
1616
1700
1954
2255
2439
2402
2190
1910
1717
1725
1919
2205
2418
2444
2273
2006
1795
1757
1901
2191
2443
2525
2426
2179
1938
1827
1917
2163
2445
2613
2555
2339
2069
1888
1904
2110
2386
2611
2633
2451
2173
1936
1875
2007
2263
2518
2629
2511
2249
1965
1818
1901
2133
2397
2542
2483
2254
1969
1782
1788
1968
2224
2416
2407
2214
1919
1663
1600
1724
1979
2233
2329
2235
1968
1676
1535
1625
1867
2135
2294
2263
2046
1735
1499
1507
1702
2025
2254
2266
2079
1791
1561
1515
1661
1907
2135
2225
2107
1852
1598
1479
1584
1842
2118
2285
2237
2001
1718
1520
1509
1675
1904
2019
1920
1616
1198
829
656
706
912
1120
1168
1007
751
464
310
369
608
854
1008
960
750
466
309
322
525
813
1052
1093
923
638
404
360
501
774
1040
1135
1035
797
566
461
571
832
1129
1299
1250
1016
746
569
609
830
1131
1354
1376
1210
941
723
677
818
1095
1367
1473
1375
1119
844
728
813
1088
1386
1555
1514
1269
1008
844
880
1113
1420
1647
1654
1470
1211
1007
977
1129
1397
1666
1769
1642
1367
1101
993
1106
1375
1679
1826
1770
1557
1299
1136
1154
1361
1659
1885
1915
1746
1460
1222
1181
1344
1647
1915
2001
1894
1646
1395
1297
1407
1664
1939
2102
2063
1839
1568
1395
1427
1664
1968
2192
2219
2046
1763
1535
1501
1655
1931
2189
2262
2140
1872
1599
1463
1552
1802
2086
2243
2189
1947
1678
1478
1513
1741
2031
2242
2251
2061
1783
1572
1527
1680
1958
2230
2330
2228
1975
1714
1612
1711
1955
2209
2331
2271
2066
1824
1689
1790
2083
2438
2711
2787
2669
2423
2214
2169
2289
2499
2681
2685
2479
2128
1788
1612
1647
1843
2081
2198
2146
1926
1674
1529
1603
1872
2211
2461
2500
2343
2077
1855
1829
1984
2257
2487
2555
2421
2176
1922
1820
1921
2182
2464
2624
2555
2335
2070
1904
1939
2175
2451
2653
2665
2499
2240
2003
1967
2128
2413
2670
2753
2631
2368
2111
1999
2095
2331
2599
2749
2703
2480
2209
2032
2064
2288
2593
2794
2793
2609
2341
2128
2095
2258
2545
2800
2867
2739
2475
2221
2124
2235
2495
2789
2947
2899
2650
2375
2218
2249
2450
2733
2947
2958
2783
2512
2297
2250
2389
2669
2935
3024
2891
2623
2353
2233
2330
2582
2853
3007
2945
2688
2371
2190
2211
2417
2701
2889
2870
2666
2363
2115
2047
2194
2452
2695
2767
2625
2348
2079
1957
2055
2288
2545
2669
2581
2343
2059
1886
1931
2149
2422
2622
2608
2402
2107
1883
1865
2035
2304
2544
2618
2486
2228
1970
1869
1973
2224
2502
2634
2523
2247
1966
1808
1863
2103
2401
2611
2608
2416
2146
1932
1913
2075
2321
2545
2606
2448
2185
1930
1838
1942
2208
2475
2618
2539
2289
2013
1861
1913
2108
2391
2591
2593
2403
2143
1930
1904
2068
2341
2581
2642
2503
2227
1966
1867
1973
2234
2506
2641
2559
2345
2068
1899
1934
2154
2419
2609
2591
2400
2131
1909
1874
2041
2320
2558
2619
2475
2203
1957
1875
1997
2257
2513
2646
2587
2352
2079
1911
1946
2159
2431
2629
2624
2418
2143
1911
1875
2032
2308
2550
2615
2450
2175
1926
1844
1955
2201
2471
2619
2550
2320
2035
1859
1894
2112
2399
2587
2559
2382
2113
1907
1891
2055
2320
2551
2617
2475
2197
1921
1823
1938
2210
2470
2607
2527
2301
2030
1874
1923
2128
2402
2608
2602
2415
2135
1926
1903
2065
2336
2554
2613
2496
2258
2018
1921
2018
2256
2501
2635
2559
2331
2037
1859
1884
2096
2351
2528
2506
2297
2012
1799
1774
1937
2235
2480
2526
2371
2111
1874
1787
1895
2157
2421
2533
2449
2215
1932
1766
1807
2025
2315
2481
2466
2273
2012
1840
1882
2128
2480
2775
2893
2781
2533
2291
2199
2283
2471
2673
2742
2602
2285
1898
1637
1600
1767
1998
2157
2155
2000
1743
1556
1586
1795
2106
2361
2437
2319
2061
1802
1700
1794
2070
2350
2487
2416
2200
1941
1792
1847
2059
2330
2510
2496
2305
2022
1806
1785
1963
2256
2497
2554
2414
2149
1886
1778
1887
2153
2419
2559
2471
2226
1938
1781
1836
2070
2362
2542
2531
2342
2074
1862
1847
2027
2297
2527
2596
2454
2188
1923
1817
1936
2222
2507
2633
2543
2301
2022
1883
1950
2188
2465
2654
2655
2480
2203
1985
1967
2160
2447
2697
2756
2615
2335
2079
1978
2096
2341
2613
2747
2666
2418
2135
1957
1993
2224
2483
2659
2633
2442
2178
1973
1938
2098
2352
2553
2596
2423
2133
1861
1745
1857
2112
2346
2428
2338
2098
1813
1651
1682
1895
2179
2367
2345
2146
1857
1618
1578
1744
2013
2246
2315
2170
1904
1653
1562
1685
1941
2207
2337
2255
2011
1749
1598
1641
1856
2151
2342
2320
2112
1827
1616
1605
1783
2075
2302
2355
2213
1935
1675
1584
1707
1968
2224
2352
2271
2035
1777
1635
1685
1907
2183
2349
2318
2119
1835
1623
1618
1797
2082
2321
2381
2229
1936
1673
1583
1695
1963
2226
2352
2266
2015
1741
1587
1663
1883
2171
2358
2341
2159
1874
1655
1625
1807
2096
2342
2405
2263
1992
1742
1648
1763
2011
2272
2384
2302
2070
1791
1639
1702
1936
2213
2374
2341
2128
1840
1644
1661
1847
2128
2370
2417
2269
1999
1761
1677
1792
2054
2320
2444
2352
2094
1791
1626
1667
1887
2170
2349
2329
2147
1886
1683
1680
1866
2160
2387
2437
2285
2000
1745
1662
1769
2047
2317
2423
2330
2111
1822
1677
1726
1950
2241
2448
2439
2244
1968
1758
1751
1938
2227
2463
2509
2359
2099
1851
1761
1890
2160
2417
2528
2434
2190
1916
1760
1794
1994
2254
2416
2384
2177
1899
1706
1690
1872
2160
2383
2416
2256
2000
1771
1700
1823
2083
2336
2445
2355
2115
1840
1701
1769
1997
2284
2451
2429
2223
1950
1745
1754
1995
2319
2611
2715
2609
2378
2176
2117
2245
2496
2732
2800
2647
2324
1964
1709
1649
1780
1993
2134
2107
1916
1667
1509
1552
1769
2068
2315
2381
2266
2018
1792
1728
1857
2132
2395
2522
2463
2224
1943
1792
1847
2090
2356
2541
2530
2338
2066
1840
1830
2021
2314
2541
2589
2434
2166
1920
1845
1978
2247
2503
2615
2515
2274
2003
1855
1922
2163
2455
2630
2590
2378
2123
1937
1943
2130
2410
2639
2678
2512
2242
1995
1918
2033
2298
2559
2701
2617
2362
2097
1949
2021
2265
2549
2747
2731
2519
2250
2057
2034
2224
2502
2732
2783
2629
2352
2099
2002
2133
2389
2672
2801
2725
2475
2193
2032
2096
2327
2615
2773
2737
2518
2225
2000
1974
2131
2391
2596
2613
2448
2187
1943
1856
1971
2221
2448
2534
2431
2177
1897
1748
1806
2014
2273
2425
2383
2160
1856
1651
1637
1807
2095
2325
2372
2229
1958
1708
1619
1733
1986
2250
2367
2278
2029
1739
1581
1655
1885
2167
2333
2290
2078
1823
1644
1649
1839
2133
2343
2382
2223
1927
1678
1591
1691
1946
2213
2337
2266
2032
1760
1617
1671
1902
2181
2349
2318
2101
1812
1597
1583
1768
2067
2315
2367
2223
1951
1711
1629
1745
1990
2237
2332
2236
1986
1719
1584
1658
1894
2176
2342
2304
2097
1811
1616
1611
1795
2081
2309
2343
2181
1905
1631
1535
1680
1942
2215
2330
2247
2002
1725
1591
1666
1903
2179
2367
2330
2121
1825
1600
1584
1781
2085
2320
2355
2206
1936
1697
1629
1770
2030
2288
2391
2299
2060
1776
1621
1672
1894
2176
2342
2307
2099
1817
1619
1616
1797
2078
2308
2351
2193
1906
1655
1595
1745
2016
2271
2359
2261
2017
1759
1626
1699
1943
2233
2386
2341
2134
1872
1695
1694
1878
2160
2384
2416
2255
1982
1741
1665
1802
2077
2330
2418
2320
2061
1779
1635
1690
1909
2181
2351
2319
2096
1801
1600
1597
1803
2066
2289
2320
2158
1883
1642
1576
1712
1974
2234
2343
2253
1999
1719
1586
1658
1891
2171
2347
2308
2085
1813
1642
1664
1885
2210
2494
2624
2523
2302
2095
2031
2173
2434
2670
2711
2544
2224
1869
1631
1606
1753
1954
2084
2017
1790
1509
1334
1350
1582
1900
2159
2224
2087
1831
1616
1569
1699
1962
2224
2352
2275
2033
1767
1607
1655
1898
2186
2361
2321
2105
1808
1602
1603
1793
2085
2323
2372
2222
1949
1711
1646
1770
2039
2308
2419
2306
2052
1788
1661
1727
1940
2219
2401
2383
2188
1903
1711
1727
1929
2214
2425
2455
2288
2029
1796
1722
1861
2129
2389
2503
2420
2185
1905
1783
1862
2100
2377
2546
2517
2316
2032
1840
1845
2044
2337
2551
2588
2425
2161
1919
1858
1996
2283
2545
2650
2544
2293
2023
1875
1935
2171
2437
2601
2544
2320
2039
1843
1846
2039
2289
2483
2496
2317
2026
1781
1699
1810
2069
2315
2413
2307
2045
1754
1603
1658
1872
2143
2311
2263
2033
1728
1515
1504
1690
1969
2191
2229
2074
1795
1554
1486
1607
1879
2158
2262
2167
1907
1627
1492
1574
1795
2054
2209
2181
1983
1707
1503
1508
1698
1968
2187
2230
2093
1811
1566
1495
1637
1878
2134
2249
2157
1903
1631
1501
1594
1840
2115
2268
2228
2012
1733
1535
1535
1743
2042
2241
2265
2098
1821
1590
1522
1669
1949
2219
2335
2236
1976
1693
1535
1615
1851
2128
2298
2276
2064
1775
1584
1583
1759
2037
2261
2304
2155
1895
1659
1591
1723
1988
2246
2334
2224
1971
1739
1616
1669
1891
2173
2326
2274
2047
1767
1575
1582
1781
2066
2289
2323
2162
1873
1653
1600
1744
2014
2275
2368
2255
1991
1712
1575
1651
1899
2187
2354
2313
2096
1802
1616
1623
1819
2096
2288
2314
2162
1898
1690
1643
1776
2036
2294
2386
2274
2011
1753
1637
1712
1937
2205
2355
2318
2112
1840
1663
1678
1869
2146
2368
2399
2239
1968
1738
1673
1811
2085
2337
2430
2320
2066
1797
1677
1759
1997
2267
2417
2383
2175
1882
1658
1654
1844
2118
2334
2371
2212
1909
1647
1578
1712
1968
2225
2335
2237
1978
1727
1610
1706
1950
2221
2368
2320
2093
1790
1584
1591
1791
2082
2311
2350
2203
1949
1745
1723
1895
2250
2581
2746
2699
2478
2210
2064
2110
2288
2485
2559
2448
2144
1779
1501
1398
1515
1775
1999
2065
1933
1699
1491
1463
1633
1929
2224
2343
2234
1974
1727
1620
1711
1935
2203
2357
2306
2083
1794
1616
1636
1842
2135
2358
2384
2224
1949
1722
1664
1797
2065
2314
2414
2314
2061
1779
1651
1728
1991
2278
2449
2411
2192
1897
1701
1721
1921
2208
2419
2445
2271
1987
1741
1669
1797
2091
2379
2503
2413
2172
1913
1783
1833
2047
2320
2491
2458
2253
1971
1776
1788
1989
2288
2514
2552
2391
2110
1849
1783
1936
2224
2499
2624
2515
2283
2023
1895
1970
2213
2485
2643
2613
2384
2097
1883
1879
2070
2337
2543
2559
2400
2119
1872
1792
1911
2179
2432
2515
2389
2107
1799
1649
1718
1951
2214
2361
2305
2091
1793
1581
1577
1775
2064
2269
2274
2094
1805
1569
1509
1659
1929
2177
2287
2186
1921
1638
1493
1569
1809
2107
2281
2246
2029
1729
1518
1504
1693
1991
2222
2247
2082
1807
1563
1495
1637
1914
2183
2287
2183
1927
1651
1491
1535
1781
2076
2245
2199
1982
1703
1515
1535
1729
2007
2238
2271
2106
1815
1559
1488
1633
1904
2177
2281
2185
1939
1675
1533
1619
1873
2163
2311
2266
2046
1761
1562
1573
1781
2087
2303
2335
2163
1872
1616
1535
1697
1987
2263
2378
2274
2016
1754
1637
1727
1973
2268
2448
2416
2185
1897
1706
1709
1915
2225
2468
2509
2323
2043
1810
1760
1903
2185
2431
2510
2406
2147
1873
1731
1791
2018
2293
2454
2413
2179
1905
1722
1743
1936
2191
2403
2432
2262
1991
1761
1718
1872
2154
2407
2502
2397
2151
1882
1747
1814
2059
2337
2507
2471
2253
1959
1762
1778
1971
2249
2455
2479
2315
2035
1803
1752
1914
2203
2462
2557
2442
2173
1880
1744
1840
2096
2390
2559
2530
2315
2016
1819
1840
2047
2348
2559
2559
2386
2105
1850
1776
1907
2176
2431
2523
2397
2125
1839
1701
1772
2020
2315
2490
2454
2230
1926
1722
1728
1930
2225
2448
2478
2302
2002
1751
1687
1840
2114
2369
2457
2349
2097
1833
1714
1811
2090
2407
2620
2637
2465
2225
2056
2065
2263
2533
2711
2678
2430
2066
1723
1552
1603
1801
1991
2055
1932
1681
1431
1323
1435
1727
2061
2258
2239
2033
1761
1587
1615
1806
2096
2320
2350
2167
1881
1651
1603
1760
2031
2290
2391
2295
2038
1749
1609
1688
1936
2224
2396
2365
2144
1845
1636
1654
1869
2163
2386
2411
2229
1931
1680
1621
1776
2062
2331
2441
2338
2075
1799
1669
1746
2000
2291
2451
2400
2182
1897
1697
1705
1907
2209
2448
2482
2329
2066
1823
1767
1903
2176
2444
2559
2457
2197
1923
1790
1872
2122
2410
2602
2549
2328
2037
1845
1856
2062
2367
2606
2625
2447
2160
1906
1840
1977
2245
2497
2580
2448
2192
1915
1765
1826
2062
2338
2498
2450
2219
1900
1676
1669
1859
2148
2357
2359
2181
1877
1605
1520
1643
1911
2153
2242
2135
1873
1597
1447
1519
1758
2038
2198
2160
1939
1651
1440
1446
1651
1946
2173
2192
2007
1725
1472
1413
1567
1846
2119
2211
2096
1837
1583
1454
1520
1767
2034
2205
2154
1933
1657
1472
1483
1686
1984
2192
2211
2057
1772
1501
1431
1561
1850
2131
2239
2133
1867
1587
1454
1533
1795
2094
2261
2208
1983
1679
1474
1483
1701
2001
2225
2242
2079
1798
1559
1487
1625
1897
2163
2263
2155
1879
1607
1478
1565
1808
2106
2274
2221
1985
1703
1503
1513
1725
2018
2248
2269
2100
1815
1581
1518
1679
1936
2192
2285
2188
1920
1653
1501
1573
1812
2115
2281
2240
2021
1746
1535
1515
1701
1989
2238
2283
2116
1834
1587
1524
1669
1941
2209
2314
2205
1936
1649
1506
1587
1841
2146
2313
2269
2045
1756
1565
1573
1774
2068
2290
2321
2158
1869
1619
1568
1715
1994
2256
2346
2224
1953
1685
1565
1646
1881
2170
2347
2299
2066
1775
1589
1627
1859
2138
2354
2375
2192
1887
1653
1600
1756
2053
2315
2407
2299
2041
1758
1619
1686
1925
2202
2358
2310
2084
1782
1577
1582
1759
2039
2278
2314
2148
1851
1600
1527
1687
1983
2229
2324
2207
1946
1675
1554
1633
1882
2161
2346
2289
2065
1767
1595
1611
1810
2099
2326
2378
2242
1993
1815
1837
2041
2353
2657
2799
2707
2435
2119
1903
1890
2047
2227
2309
2189
1872
1520
1291
1279
1487
1805
2074
2134
1982
1741
1535
1518
1706
1995
2278
2384
2273
2001
1711
1565
1648
1898
2196
2375
2337
2115
1837
1638
1644
1837
2143
2374
2401
2235
1955
1724
1673
1814
2106
2347
2433
2314
2039
1771
1646
1728
1969
2256
2419
2387
2179
1887
1685
1710
1905
2188
2403
2423
2253
1971
1751
1717
1878
2162
2414
2499
2384
2133
1886
1781
1866
2112
2384
2542
2483
2282
2010
1837
1855
2065
2368
2587
2615
2434
2150
1904
1843
1989
2271
2535
2622
2492
2224
1956
1843
1931
2190
2477
2634
2559
2333
2043
1850
1857
2058
2352
2559
2579
2384
2071
1804
1726
1851
2113
2360
2433
2297
2028
1744
1600
1663
1907
2192
2339
2259
2000
1692
1487
1488
1695
1970
2194
2219
2060
1774
1520
1455
1610
1889
2145
2235
2117
1842
1569
1431
1518
1770
2064
2224
2173
1936
1645
1443
1453
1655
1958
2183
2215
2043
1743
1485
1425
1586
1873
2147
2238
2130
1881
1610
1461
1522
1776
2058
2212
2166
1937
1673
1482
1489
1680
1968
2192
2224
2058
1777
1535
1486
1639
1922
2191
2285
2165
1901
1619
1480
1557
1799
2080
2229
2179
1958
1669
1472
1489
1705
1998
2235
2270
2112
1818
1584
1520
1662
1937
2192
2287
2161
1897
1627
1509
1607
1863
2155
2322
2271
2025
1727
1535
1553
1759
2062
2284
2295
2123
1840
1603
1532
1680
1955
2218
2317
2213
1965
1687
1557
1637
1872
2145
2307
2270
2064
1774
1567
1569
1774
2070
2297
2330
2166
1889
1665
1612
1732
1996
2257
2348
2234
1975
1714
1595
1671
1915
2195
2350
2303
2089
1808
1631
1658
1872
2150
2363
2383
2211
1918
1680
1621
1765
2046
2320
2433
2329
2064
1787
1659
1750
2002
2290
2448
2407
2189
1905
1728
1744
1936
2210
2414
2417
2227
1927
1669
1594
1727
2012
2287
2384
2271
1991
1712
1582
1657
1913
2214
2383
2327
2089
1792
1604
1633
1835
2117
2330
2352
2168
1899
1680
1635
1785
2055
2315
2405
2319
2112
1904
1840
1981
2279
2613
2807
2778
2544
2213
1949
1897
2038
2273
2415
2343
2082
1712
1398
1298
1439
1738
2023
2160
2085
1855
1615
1510
1619
1890
2189
2366
2334
2135
1859
1671
1687
1899
2185
2405
2416
2236
1943
1719
1665
1811
2103
2359
2465
2357
2098
1826
1705
1789
2031
2310
2481
2435
2215
1936
1747
1773
1978
2273
2499
2505
2321
2037
1807
1763
1921
2192
2432
2516
2414
2167
1916
1807
1894
2134
2427
2594
2544
2320
2029
1839
1869
2090
2375
2595
2618
2446
2171
1936
1893
2046
2333
2611
2685
2559
2291
2043
1938
2039
2302
2559
2724
2673
2443
2167
1974
1991
2199
2490
2711
2742
2557
2277
2030
1948
2069
2326
2559
2644
2486
2203
1923
1788
1866
2129
2418
2579
2505
2271
1970
1758
1744
1919
2187
2375
2369
2172
1874
1616
1535
1690
1969
2237
2339
2228
1951
1659
1505
1583
1831
2117
2274
2223
2000
1698
1501
1522
1734
2024
2253
2274
2103
1817
1565
1506
1665
1947
2210
2297
2170
1885
1613
1483
1569
1818
2107
2256
2212
1987
1712
1527
1535
1749
2045
2269
2282
2094
1808
1571
1510
1665
1941
2207
2294
2151
1862
1611
1500
1607
1858
2143
2303
2243
2010
1730
1535
1565
1771
2061
2273
2294
2115
1819
1584
1535
1706
1986
2251
2336
2219
1946
1666
1535
1633
1898
2185
2339
2290
2047
1734
1535
1587
1813
2119
2352
2384
2214
1927
1685
1627
1766
2012
2243
2331
2214
1954
1671
1533
1641
1911
2192
2339
2288
2064
1782
1601
1616
1827
2119
2324
2322
2149
1857
1625
1575
1721
1987
2244
2346
2231
1951
1667
1555
1649
1890
2181
2352
2308
2097
1814
1621
1621
1811
2103
2307
2341
2176
1895
1653
1604
1761
2047
2304
2395
2284
2032
1772
1637
1712
1959
2245
2404
2352
2121
1840
1658
1660
1854
2144
2363
2379
2195
1901
1651
1601
1770
2053
2289
2359
2222
1930
1664
1535
1635
1888
2175
2323
2281
2060
1778
1599
1616
1822
2109
2309
2312
2140
1861
1643
1601
1748
2030
2284
2368
2254
1981
1713
1598
1698
1974
2318
2523
2538
2378
2140
1973
2001
2221
2499
2693
2664
2429
2064
1769
1637
1701
1883
2047
2068
1899
1622
1363
1271
1392
1681
2006
2211
2192
1984
1714
1535
1575
1798
2103
2338
2359
2169
1872
1629
1584
1742
2017
2273
2363
2252
1989
1715
1587
1675
1946
2263
2425
2366
2133
1860
1675
1685
1883
2166
2375
2398
2229
1962
1731
1682
1835
2106
2353
2451
2350
2079
1799
1689
1786
2026
2326
2480
2433
2224
1936
1747
1743
1937
2231
2451
2481
2311
2022
1791
1738
1904
2213
2485
2591
2475
2221
1942
1820
1919
2179
2450
2594
2542
2337
2086
1907
1911
2113
2404
2625
2640
2457
2168
1921
1875
2044
2321
2559
2666
2534
2258
1957
1822
1891
2128
2406
2559
2502
2274
1985
1783
1777
1970
2259
2470
2470
2269
1954
1686
1619
1764
2033
2315
2394
2269
1998
1715
1597
1680
1918
2186
2333
2269
2032
1749
1569
1593
1797
2086
2291
2306
2133
1840
1615
1535
1679
1940
2212
2305
2183
1909
1649
1535
1648
1915
2195
2335
2256
2011
1728
1535
1562
1767
2055
2261
2283
2114
1840
1611
1535
1695
1982
2256
2346
2223
1942
1665
1535
1632
1895
2177
2339
2283
2047
1770
1577
1593
1803
2099
2310
2308
2119
1847
1627
1582
1728
2009
2258
2338
2201
1935
1655
1529
1631
1890
2179
2342
2296
2088
1802
1614
1622
1822
2110
2304
2306
2113
1843
1628
1593
1746
2018
2275
2358
2233
1957
1690
1579
1668
1926
2207
2367
2317
2075
1770
1571
1595
1810
2113
2319
2322
2139
1857
1627
1586
1747
2027
2282
2366
2247
1986
1691
1562
1657
1907
2189
2343
2271
2017
1743
1575
1619
1849
2143
2357
2371
2191
1905
1679
1629
1796
2071
2311
2385
2261
1994
1712
1600
1702
1950
2242
2400
2356
2134
1860
1687
1726
1933
2225
2448
2470
2270
1959
1704
1629
1753
2018
2265
2335
2210
1954
1700
1584
1678
1923
2210
2374
2315
2078
1783
1593
1642
1862
2155
2359
2368
2192
1900
1678
1621
1771
2043
2305
2391
2277
2027
1776
1675
1803
2103
2447
2650
2637
2444
2192
2021
2061
2267
2527
2704
2662
2405
2038
1711
1571
1637
1849
2059
2110
1955
1679
1425
1359
1501
1808
2135
2322
2285
2054
1777
1616
1661
1873
2159
2352
2359
2176
1879
1643
1595
1751
2041
2319
2417
2303
2016
1741
1606
1683
1927
2225
2391
2362
2147
1871
1683
1703
1898
2192
2407
2423
2247
1966
1716
1664
1829
2117
2373
2446
2305
2029
1770
1655
1759
2011
2287
2439
2391
2178
1895
1710
1732
1951
2256
2477
2486
2306
2045
1807
1744
1901
2187
2455
2559
2457
2192
1923
1802
1887
2146
2426
2559
2499
2275
2011
1844
1867
2071
2355
2559
2594
2418
2128
1887
1835
1963
2240
2482
2578
2454
2187
1910
1778
1843
2077
2327
2447
2359
2128
1854
1666
1669
1839
2098
2298
2297
2095
1791
1557
1506
1664
1937
2182
2248
2111
1819
1535
1422
1529
1780
2055
2207
2159
1923
1630
1434
1458
1677
1959
2173
2191
1998
1714
1470
1418
1577
1858
2125
2210
2081
1813
1531
1421
1515
1773
2055
2211
2150
1897
1631
1456
1486
1697
1969
2171
2190
2003
1714
1485
1424
1578
1853
2113
2211
2101
1837
1561
1427
1511
1781
2067
2223
2157
1918
1616
1417
1438
1647
1931
2146
2163
1983
1712
1482
1450
1631
1929
2176
2234
2111
1838
1567
1444
1535
1791
2073
2230
2187
1965
1687
1494
1520
1728
2029
2253
2267
2084
1790
1535
1483
1634
1922
2183
2270
2154
1872
1611
1488
1577
1821
2102
2245
2189
1969
1706
1529
1562
1791
2071
2267
2256
2060
1771
1535
1475
1635
1946
2233
2319
2175
1890
1611
1484
1585
1851
2151
2303
2240
2002
1715
1532
1562
1777
2064
2259
2273
2106
1833
1603
1565
1735
2013
2263
2362
2242
1973
1697
1570
1668
1920
2215
2381
2313
2076
1765
1577
1586
1776
2059
2256
2273
2101
1799
1561
1510
1667
1923
2164
2258
2145
1859
1585
1455
1535
1784
2064
2224
2189
1995
1705
1520
1535
1741
2031
2254
2266
2083
1791
1535
1494
1659
1946
2215
2323
2246
2028
1818
1763
1905
2206
2525
2711
2670
2437
2121
1865
1822
1967
2173
2284
2192
1914
1535
1259
1173
1339
1658
1949
2078
1994
1757
1491
1375
1484
1770
2078
2258
2218
1997
1703
1511
1535
1758
2046
2255
2272
2092
1789
1535
1506
1674
1964
2223
2307
2192
1934
1681
1570
1662
1931
2210
2352
2293
2066
1771
1593
1616
1824
2112
2323
2341
2149
1851
1625
1584
1747
2030
2286
2367
2261
2009
1745
1635
1744
2007
2287
2425
2368
2141
1863
1683
1703
1915
2218
2432
2450
2279
2010
1779
1728
1894
2191
2448
2534
2401
2141
1872
1766
1882
2130
2417
2586
2543
2307
2022
1837
1865
2075
2354
2548
2549
2353
2059
1806
1754
1919
2211
2473
2559
2420
2130
1836
1707
1789
2034
2298
2427
2341
2082
1777
1594
1605
1808
2096
2307
2309
2099
1796
1558
1491
1644
1911
2150
2223
2093
1810
1522
1375
1470
1747
2061
2231
2184
1950
1649
1450
1466
1681
1978
2202
2205
2021
1733
1504
1445
1605
1873
2142
2228
2119
1831
1559
1449
1559
1849
2109
2253
2183
1941
1665
1487
1511
1718
1989
2206
2217
2032
1742
1507
1454
1612
1890
2144
2230
2112
1838
1562
1443
1535
1807
2091
2245
2192
1967
1665
1471
1488
1698
1983
2202
2224
2046
1763
1511
1456
1622
1913
2183
2273
2160
1885
1601
1486
1598
1859
2141
2299
2242
1995
1682
1488
1518
1738
2035
2250
2266
2083
1792
1563
1518
1675
1957
2223
2306
2187
1909
1645
1523
1609
1856
2128
2262
2182
1953
1687
1522
1556
1776
2079
2288
2301
2125
1843
1616
1562
1712
1981
2235
2318
2177
1882
1607
1491
1593
1861
2153
2319
2260
2020
1744
1570
1602
1824
2134
2351
2352
2160
1884
1650
1603
1767
2059
2307
2375
2249
1984
1727
1616
1725
2000
2275
2425
2353
2119
1823
1629
1643
1843
2127
2327
2329
2135
1842
1611
1557
1697
1968
2211
2288
2167
1924
1665
1535
1639
1886
2156
2311
2258
2027
1745
1535
1585
1790
2069
2268
2285
2112
1824
1610
1584
1773
2099
2402
2535
2486
2286
2062
1970
2101
2381
2668
2784
2654
2321
1956
1695
1623
1749
1958
2098
2062
1845
1557
1327
1319
1520
1835
2112
2211
2114
1871
1605
1493
1611
1883
2192
2351
2288
2033
1725
1535
1590
1814
2122
2323
2322
2146
1872
1649
1612
1773
2059
2320
2407
2288
2017
1734
1611
1699
1950
2229
2382
2324
2098
1838
1671
1705
1911
2199
2414
2427
2250
1947
1708
1664
1817
2089
2336
2407
2288
2041
1791
1695
1802
2067
2357
2512
2448
2204
1913
1750
1792
2016
2306
2511
2518
2347
2079
1854
1810
1973
2256
2516
2619
2507
2243
1971
1856
1941
2199
2486
2635
2559
2319
2039
1867
1891
2112
2397
2609
2603
2401
2103
1853
1795
1947
2224
2468
2543
2400
2129
1847
1702
1775
2000
2257
2398
2336
2097
1807
1595
1587
1778
2066
2281
2289
2096
1791
1535
1483
1649
1933
2192
2271
2131
1856
1581
1463
1552
1793
2079
2230
2176
1937
1651
1483
1522
1744
2043
2250
2250
2069
1791
1565
1505
1659
1951
2204
2275
2133
1867
1590
1488
1605
1875
2175
2329
2265
2030
1743
1535
1535
1758
2047
2266
2271
2084
1789
1535
1511
1681
1982
2237
2317
2192
1911
1638
1509
1601
1861
2134
2283
2229
2006
1740
1535
1572
1774
2079
2288
2302
2131
1825
1601
1535
1705
1989
2256
2349
2224
1943
1666
1535
1649
1905
2187
2333
2285
2058
1773
1593
1619
1830
2114
2319
2318
2126
1829
1600
1555
1711
1987
2255
2336
2195
1919
1639
1508
1623
1874
2189
2351
2293
2066
1786
1583
1590
1776
2058
2256
2269
2090
1798
1566
1518
1671
1921
2176
2257
2128
1846
1574
1456
1563
1839
2127
2274
2209
1979
1695
1511
1535
1759
2064
2287
2303
2119
1823
1584
1527
1696
1986
2246
2321
2197
1938
1679
1585
1691
1949
2225
2355
2275
2022
1729
1533
1563
1776
2072
2279
2295
2137
1838
1587
1517
1664
1946
2187
2272
2157
1893
1635
1499
1595
1856
2145
2301
2247
2029
1738
1535
1581
1790
2075
