2775
2925
2684
2211
1718
1365
1279
1535
2038
2459
2513
2255
1889
1572
1437
1614
2077
2544
2701
2466
2075
1726
1520
1579
1958
2439
2731
2592
2226
1827
1558
1509
1783
2277
2688
2709
2406
2000
1664
1521
1675
2128
2608
2769
2541
2147
1769
1555
1602
1977
2490
2797
2674
2320
1922
1635
1569
1826
2321
2742
2768
2452
2055
1728
1591
1751
2221
2697
2865
2654
2275
1919
1714
1743
2118
2638
2944
2833
2479
2071
1783
1742
2002
2495
2917
2942
2645
2250
1906
1743
1872
2314
2780
2944
2709
2309
1927
1706
1735
2095
2559
2864
2739
2383
1981
1683
1616
1874
2369
2771
2773
2445
2018
1676
1535
1694
2126
2579
2736
2491
2079
1684
1457
1500
1859
2355
2662
2546
2190
1792
1509
1456
1717
2203
2611
2623
2308
1898
1552
1405
1562
2009
2491
2651
2431
2038
1668
1456
1502
1872
2370
2670
2539
2167
1755
1475
1423
1699
2202
2615
2657
2362
1961
1611
1457
1603
2037
2503
2673
2449
2063
1681
1462
1495
1883
2401
2706
2597
2243
1843
1552
1470
1717
2198
2590
2601
2282
1872
1535
1377
1520
1967
2447
2624
2401
2017
1641
1408
1435
1814
2329
2635
2517
2149
1728
1422
1345
1602
2105
2531
2602
2355
2011
1743
1650
1858
2368
2897
3115
2874
2423
1970
1663
1618
1910
2325
2549
2371
1946
1481
1168
1098
1375
1911
2371
2445
2179
1795
1441
1277
1428
1884
2367
2555
2356
1981
1603
1360
1382
1734
2240
2559
2473
2113
1709
1430
1363
1616
2107
2517
2555
2261
1867
1520
1357
1505
1968
2449
2630
2415
2027
1648
1411
1435
1791
2279
2593
2501
2162
1756
1470
1405
1653
2146
2559
2606
2303
1902
1561
1410
1563
1998
2503
2704
2494
2111
1731
1499
1530
1900
2413
2741
2651
2306
1923
1626
1535
1783
2247
2669
2707
2416
2018
1675
1506
1636
2078
2545
2729
2512
2125
1735
1495
1513
1871
2368
2673
2559
2206
1774
1458
1369
1603
2082
2501
2541
2253
1841
1491
1332
1455
1887
2352
2533
2314
1920
1533
1298
1314
1664
2164
2490
2399
2059
1650
1341
1262
1498
1981
2401
2448
2160
1766
1396
1239
1360
1793
2256
2437
2224
1827
1433
1196
1199
1531
2017
2332
2224
1854
1429
1121
1023
1256
1713
2112
2147
1831
1395
1023
842
933
1362
1843
2019
1798
1387
983
727
720
1041
1535
1862
1763
1390
960
643
544
752
1219
1649
1709
1423
1015
662
490
598
1008
1506
1722
1520
1138
759
535
556
891
1413
1774
1711
1375
973
673
579
791
1287
1757
1866
1636
1293
1001
895
1088
1593
2119
2336
2123
1694
1253
949
903
1196
1649
1923
1774
1357
912
595
511
767
1303
1801
1909
1670
1290
960
810
931
1377
1879
2103
1919
1535
1150
910
911
1247
1759
2117
2046
1709
1306
995
893
1121
1605
2045
2130
1867
1473
1141
971
1103
1555
2064
2297
2119
1727
1335
1098
1104
1450
1968
2327
2275
1949
1557
1255
1170
1403
1914
2368
2441
2173
1776
1424
1264
1383
1836
2363
2603
2416
2022
1633
1383
1393
1744
2259
2618
2555
2235
1840
1535
1450
1678
2162
2599
2671
2390
1984
1623
1426
1535
1969
2480
2707
2526
2138
1733
1471
1454
1785
2294
2643
2583
2234
1818
1499
1392
1614
2089
2516
2598
2329
1923
1582
1404
1519
1954
2447
2666
2475
2090
1695
1457
1461
1806
2306
2644
2559
2218
1826
1520
1434
1664
2149
2608
2691
2422
2029
1669
1477
1581
2006
2506
2726
2526
2141
1763
1523
1525
1872
2384
2737
2655
2307
1903
1593
1488
1706
2183
2635
2724
2465
2075
1709
1515
1613
2032
2527
2766
2591
2206
1815
1562
1535
1885
2393
2768
2736
2403
2000
1705
1617
1851
2292
2711
2788
2507
2096
1729
1535
1647
2063
2549
2784
2592
2205
1810
1563
1554
1858
2347
2704
2670
2343
1936
1626
1517
1730
2179
2612
2694
2405
1994
1647
1494
1647
2135
2691
2993
2879
2530
2166
1917
1872
2135
2559
2870
2755
2352
1873
1472
1264
1371
1793
2203
2290
2032
1653
1335
1187
1311
1751
2265
2519
2365
1986
1591
1333
1315
1631
2128
2481
2441
2110
1696
1378
1269
1476
1951
2389
2478
2202
1787
1413
1212
1297
1691
2190
2435
2270
1886
1488
1230
1213
1527
2039
2411
2359
2013
1603
1259
1143
1349
1837
2288
2393
2132
1732
1364
1178
1271
1680
2182
2442
2286
1913
1523
1274
1259
1565
2069
2445
2416
2097
1678
1385
1267
1461
1936
2384
2481
2221
1814
1455
1263
1355
1765
2261
2509
2346
1964
1558
1292
1271
1597
2105
2463
2407
2070
1657
1315
1189
1374
1851
2304
2415
2149
1747
1389
1191
1281
1683
2173
2418
2266
1893
1498
1232
1201
1507
2003
2371
2331
2002
1610
1270
1158
1351
1823
2281
2402
2145
1745
1377
1193
1263
1681
2175
2401
2239
1873
1484
1232
1209
1521
2031
2418
2387
2068
1650
1328
1211
1405
1894
2359
2477
2223
1813
1441
1231
1289
1695
2186
2443
2306
1959
1584
1322
1290
1587
2080
2451
2431
2114
1715
1391
1271
1446
1922
2401
2532
2293
1895
1527
1335
1402
1801
2295
2545
2390
2020
1627
1349
1307
1584
2059
2438
2423
2112
1687
1392
1269
1439
1891
2335
2466
2217
1823
1458
1261
1339
1734
2221
2492
2342
1975
1595
1344
1341
1702
2260
2710
2749
2478
2100
1802
1651
1791
2195
2586
2642
2317
1840
1391
1111
1110
1450
1930
2194
2064
1712
1346
1109
1104
1427
1967
2383
2390
2091
1663
1328
1186
1351
1817
2284
2421
2177
1771
1394
1197
1249
1650
2151
2425
2289
1927
1534
1269
1216
1503
2003
2384
2367
2047
1631
1315
1193
1387
1871
2342
2479
2240
1827
1448
1241
1323
1712
2217
2495
2359
1994
1599
1326
1278
1566
2069
2475
2479
2176
1760
1456
1341
1520
1993
2467
2614
2370
1972
1613
1399
1453
1855
2363
2642
2530
2177
1783
1503
1459
1741
2229
2624
2623
2303
1903
1566
1409
1581
2039
2509
2657
2417
2021
1647
1428
1472
1846
2333
2607
2458
2095
1687
1392
1337
1616
2114
2511
2526
2217
1805
1457
1310
1467
1939
2411
2557
2325
1922
1530
1300
1355
1755
2267
2559
2448
2097
1694
1407
1341
1615
2126
2542
2559
2271
1859
1502
1350
1497
1956
2432
2594
2363
1971
1600
1389
1435
1817
2323
2625
2486
2128
1735
1441
1381
1659
2160
2559
2559
2273
1872
1531
1391
1535
1997
2468
2631
2398
2000
1634
1422
1467
1856
2372
2681
2559
2192
1781
1504
1450
1727
2219
2637
2659
2345
1931
1588
1428
1572
2017
2499
2669
2439
2055
1657
1415
1449
1825
2337
2652
2542
2193
1795
1505
1442
1687
2209
2629
2663
2367
1963
1626
1487
1671
2176
2717
2947
2791
2465
2143
1951
1990
2347
2819
3113
2940
2519
2066
1703
1566
1760
2195
2559
2559
2267
1865
1535
1424
1613
2090
2601
2794
2593
2211
1840
1600
1627
2010
2510
2823
2711
2350
1946
1654
1583
1840
2339
2758
2783
2479
2075
1728
1563
1692
2129
2608
2791
2580
2194
1810
1575
1598
1941
2465
2793
2688
2319
1914
1621
1552
1805
2304
2746
2791
2495
2073
1703
1525
1661
2109
2591
2782
2590
2194
1806
1577
1600
1962
2477
2800
2704
2359
1966
1683
1617
1872
2368
2804
2856
2559
2159
1808
1662
1790
2227
2707
2898
2695
2311
1927
1685
1685
2026
2519
2837
2734
2374
1971
1680
1603
1850
2343
2766
2799
2478
2054
1687
1510
1626
2064
2545
2737
2518
2131
1743
1488
1500
1852
2357
2682
2590
2239
1837
1552
1475
1721
2215
2646
2693
2401
2001
1648
1475
1600
2032
2515
2719
2514
2135
1751
1513
1535
1894
2398
2717
2622
2275
1856
1535
1459
1705
2196
2626
2672
2380
1971
1621
1453
1590
2015
2496
2698
2490
2114
1728
1488
1498
1846
2357
2693
2607
2256
1851
1535
1461
1706
2188
2602
2641
2348
1950
1606
1449
1584
2031
2528
2739
2543
2174
1801
1566
1574
1899
2384
2713
2625
2278
1874
1574
1472
1712
2203
2626
2682
2384
1979
1631
1456
1580
2007
2503
2721
2527
2147
1763
1505
1511
1856
2343
2667
2601
2301
1936
1689
1660
1935
2474
2982
3119
2863
2447
2057
1823
1870
2239
2673
2828
2559
2111
1637
1321
1267
1594
2096
2432
2387
2097
1743
1478
1428
1683
2178
2612
2687
2411
2022
1670
1493
1610
2039
2533
2749
2539
2149
1751
1506
1507
1861
2374
2729
2673
2337
1933
1626
1522
1755
2234
2672
2741
2453
2054
1687
1515
1634
2078
2578
2802
2619
2226
1834
1583
1579
1912
2427
2799
2746
2413
2015
1712
1606
1841
2320
2768
2847
2585
2192
1846
1680
1793
2224
2719
2943
2750
2373
1992
1759
1773
2122
2631
2994
2939
2599
2185
1866
1755
1966
2445
2896
2991
2719
2297
1924
1730
1827
2253
2739
2963
2782
2397
2012
1769
1755
2080
2559
2903
2823
2461
2042
1715
1600
1808
2289
2747
2843
2559
2180
1824
1637
1723
2128
2608
2828
2655
2273
1878
1621
1615
1957
2475
2836
2779
2434
2023
1709
1595
1798
2271
2709
2795
2523
2122
1755
1586
1681
2102
2603
2837
2676
2307
1919
1646
1617
1935
2416
2768
2709
2369
1977
1658
1554
1766
2241
2688
2771
2515
2117
1744
1535
1621
2034
2542
2799
2643
2283
1878
1605
1593
1918
2432
2800
2765
2426
2018
1711
1615
1835
2317
2790
2896
2630
2226
1869
1680
1763
2171
2656
2893
2707
2317
1920
1653
1627
1933
2432
2800
2756
2423
2032
1702
1581
1776
2256
2729
2841
2586
2192
1826
1623
1695
2096
2559
2823
2672
2322
1984
1799
1840
2196
2753
3200
3219
2897
2479
2121
1934
2066
2473
2866
2889
2531
2046
1600
1338
1391
1795
2314
2624
2510
2174
1809
1589
1591
1909
2404
2767
2727
2401
2011
1706
1600
1813
2283
2737
2866
2630
2243
1875
1685
1753
2147
2633
2899
2752
2380
1984
1725
1693
1995
2501
2895
2886
2559
2179
1850
1719
1895
2353
2812
2930
2675
2283
1919
1730
1808
2207
2698
2970
2815
2448
2064
1792
1765
2064
2559
2959
2929
2607
2198
1883
1760
1936
2399
2880
3003
2758
2363
1999
1802
1877
2279
2769
3039
2866
2479
2096
1822
1787
2087
2581
2965
2934
2591
2176
1849
1731
1910
2362
2807
2925
2655
2243
1849
1639
1695
2087
2559
2823
2666
2272
1843
1535
1485
1781
2282
2671
2661
2341
1936
1601
1456
1606
2061
2506
2634
2384
1978
1606
1402
1468
1866
2351
2631
2463
2097
1691
1399
1344
1625
2121
2512
2511
2199
1792
1456
1328
1499
1950
2398
2515
2273
1873
1517
1306
1361
1747
2246
2517
2383
2016
1625
1345
1286
1567
2061
2435
2428
2112
1703
1376
1245
1422
1877
2343
2480
2256
1866
1502
1303
1363
1762
2265
2524
2381
1999
1593
1312
1265
1561
2074
2483
2481
2175
1775
1447
1305
1467
1921
2383
2512
2270
1857
1479
1259
1280
1651
2140
2419
2287
1937
1535
1269
1228
1507
2001
2405
2411
2098
1685
1347
1207
1378
1847
2320
2463
2238
1861
1535
1394
1515
1959
2513
2860
2743
2371
1947
1616
1479
1677
2101
2431
2352
1955
1467
1073
901
1056
1532
2034
2226
2025
1648
1328
1141
1195
1584
2086
2384
2271
1913
1509
1229
1171
1449
1949
2353
2368
2067
1665
1337
1199
1346
1804
2277
2430
2191
1776
1423
1215
1252
1642
2147
2446
2319
1953
1555
1276
1209
1474
1979
2394
2418
2133
1728
1391
1247
1396
1838
2303
2454
2226
1835
1462
1250
1302
1705
2217
2512
2401
2059
1673
1395
1338
1603
2098
2507
2535
2230
1830
1499
1355
1515
1987
2471
2636
2410
2013
1638
1408
1438
1805
2288
2586
2461
2110
1708
1418
1355
1623
2113
2510
2528
2223
1805
1455
1294
1415
1855
2310
2467
2250
1843
1451
1221
1238
1600
2103
2405
2283
1914
1520
1245
1193
1456
1955
2358
2375
2059
1635
1283
1135
1273
1726
2213
2401
2194
1808
1429
1206
1229
1597
2112
2420
2318
1947
1535
1238
1157
1402
1891
2303
2336
2047
1661
1315
1154
1288
1735
2218
2397
2192
1810
1429
1214
1239
1600
2098
2407
2304
1956
1534
1238
1168
1418
1911
2337
2383
2101
1690
1335
1168
1297
1743
2226
2419
2229
1858
1485
1261
1286
1650
2153
2464
2366
2003
1599
1291
1206
1440
1922
2335
2373
2096
1709
1345
1179
1307
1761
2246
2439
2239
1842
1438
1195
1199
1563
2074
2406
2327
1995
1603
1298
1210
1441
1947
2406
2505
2285
1951
1648
1535
1711
2171
2653
2831
2599
2157
1685
1374
1319
1603
2035
2295
2159
1785
1358
1059
991
1264
1807
2275
2363
2101
1728
1393
1235
1358
1803
2282
2479
2274
1883
1502
1271
1284
1646
2156
2485
2416
2079
1675
1361
1271
1515
2003
2446
2512
2235
1839
1486
1320
1439
1878
2371
2591
2394
2000
1622
1391
1405
1744
2231
2549
2471
2147
1751
1461
1392
1634
2131
2559
2637
2358
1951
1604
1439
1568
2007
2506
2723
2538
2171
1792
1552
1567
1915
2434
2791
2732
2395
2000
1695
1600
1816
2289
2718
2789
2505
2108
1755
1584
1695
2118
2604
2817
2627
2240
1850
1603
1600
1933
2426
2762
2677
2327
1910
1606
1494
1712
2178
2599
2667
2384
1987
1633
1442
1559
1970
2451
2679
2501
2129
1743
1488
1483
1814
2314
2668
2609
2273
1876
1563
1460
1676
2158
2602
2687
2411
2016
1654
1470
1561
1998
2495
2721
2531
2153
1762
1504
1504
1843
2345
2690
2627
2279
1856
1563
1456
1680
2171
2624
2707
2423
2017
1659
1458
1566
1981
2480
2719
2535
2160
1765
1519
1516
1853
2357
2704
2646
2311
1894
1583
1478
1702
2192
2649
2751
2480
2086
1730
1567
1661
2085
2559
2812
2640
2266
1871
1606
1589
1903
2386
2736
2679
2335
1933
1611
1488
1712
2180
2643
2742
2470
2071
1712
1531
1626
2036
2535
2768
2592
2213
1823
1535
1526
1859
2378
2778
2786
2511
2176
1917
1865
2122
2636
3122
3223
2893
2423
1995
1735
1760
2112
2527
2687
2431
1999
1567
1294
1279
1623
2156
2550
2543
2246
1868
1553
1442
1653
2132
2593
2704
2439
2041
1682
1472
1535
1954
2442
2688
2522
2154
1760
1506
1495
1839
2320
2674
2630
2295
1890
1558
1434
1645
2128
2579
2686
2429
2031
1668
1472
1552
1942
2434
2685
2519
2155
1770
1515
1496
1810
2310
2672
2630
2305
1905
1587
1470
1669
2144
2607
2720
2467
2077
1723
1535
1643
2063
2556
2803
2640
2261
1872
1601
1579
1887
2395
2775
2743
2413
1995
1663
1520
1715
2197
2659
2770
2499
2096
1727
1521
1597
1985
2466
2703
2522
2143
1741
1467
1424
1719
2205
2559
2526
2195
1776
1442
1315
1502
1968
2422
2530
2266
1845
1463
1259
1335
1747
2256
2507
2352
1969
1565
1294
1253
1535
2055
2432
2403
2086
1680
1355
1234
1419
1891
2348
2455
2206
1808
1421
1226
1282
1687
2197
2448
2297
1922
1503
1233
1197
1489
1991
2374
2351
2031
1631
1306
1178
1367
1821
2277
2398
2149
1746
1379
1178
1251
1655
2159
2422
2283
1916
1511
1226
1181
1466
1967
2362
2352
2046
1665
1359
1247
1439
1915
2384
2511
2259
1863
1488
1282
1344
1730
2210
2458
2307
1925
1530
1262
1216
1506
2000
2381
2355
2033
1639
1322
1213
1402
1873
2336
2464
2215
1811
1441
1234
1287
1687
2195
2491
2395
2099
1777
1580
1607
1961
2507
2902
2864
2480
2002
1610
1397
1503
1910
2311
2378
2077
1629
1218
1008
1086
1506
2039
2350
2242
1899
1520
1264
1238
1535
2055
2445
2435
2122
1717
1379
1243
1418
1881
2347
2480
2242
1853
1489
1302
1371
1783
2301
2585
2431
2047
1648
1375
1329
1616
2112
2501
2498
2192
1792
1463
1337
1519
1991
2463
2613
2368
1965
1594
1382
1439
1840
2353
2649
2521
2174
1783
1515
1486
1777
2274
2679
2688
2384
1983
1650
1511
1680
2151
2639
2809
2586
2205
1845
1635
1669
2047
2559
2882
2755
2384
1987
1714
1667
1940
2445
2868
2880
2558
2135
1802
1666
1840
2298
2769
2923
2685
2292
1919
1699
1749
2125
2615
2908
2777
2416
2031
1763
1707
1968
2464
2875
2894
2587
2187
1865
1717
1854
2310
2790
2961
2741
2365
2010
1810
1867
2240
2742
3056
2937
2559
2186
1903
1851
2121
2623
3038
3061
2752
2353
2019
1872
2017
2457
2933
3107
2871
2478
2099
1872
1907
2274
2766
3083
2951
2597
2205
1931
1870
2143
2615
3011
3027
2706
2317
1968
1822
1968
2413
2875
3036
2797
2385
2020
1813
1859
2237
2741
3055
2931
2559
2176
1871
1807
2065
2544
2958
2991
2665
2240
1887
1715
1847
2288
2752
2924
2690
2291
1918
1698
1730
2096
2583
2883
2765
2410
2013
1715
1644
1895
2384
2800
2814
2485
2064
1717
1584
1760
2253
2794
3025
2842
2495
2155
1937
1945
2274
2734
2993
2830
2416
1951
1611
1477
1668
2087
2445
2455
2165
1774
1461
1352
1520
1998
2494
2673
2461
2069
1695
1459
1473
1853
2350
2681
2559
2211
1807
1506
1426
1684
2176
2598
2640
2343
1930
1591
1438
1577
2007
2480
2655
2433
2043
1665
1429
1463
1830
2327
2643
2529
2180
1787
1497
1433
1687
2185
2591
2614
2302
1893
1557
1415
1555
1999
2475
2672
2463
2083
1712
1479
1499
1861
2370
2694
2599
2249
1854
1571
1502
1761
2256
2671
2705
2416
2013
1675
1511
1637
2081
2559
2773
2559
2166
1776
1531
1535
1899
2398
2707
2608
2255
1846
1525
1437
1667
2135
2539
2559
2257
1856
1511
1353
1459
1890
2365
2544
2333
1939
1567
1322
1337
1717
2199
2531
2450
2103
1680
1371
1280
1520
1999
2422
2475
2198
1794
1443
1277
1390
1813
2290
2491
2299
1914
1529
1294
1299
1647
2131
2458
2383
2054
1654
1357
1273
1494
1967
2384
2435
2141
1737
1390
1227
1338
1773
2255
2455
2259
1877
1488
1248
1262
1614
2119
2448
2372
2027
1623
1321
1232
1458
1942
2369
2417
2128
1715
1360
1195
1318
1764
2257
2467
2287
1915
1533
1293
1295
1632
2126
2448
2362
2013
1610
1303
1211
1431
1907
2332
2397
2116
1703
1347
1195
1311
1758
2242
2448
2240
1849
1453
1216
1226
1573
2078
2407
2322
1968
1535
1275
1218
1489
2032
2525
2640
2410
2064
1748
1594
1691
2087
2519
2690
2443
2003
1535
1213
1117
1367
1826
2155
2094
1765
1380
1106
1041
1293
1823
2282
2352
2066
1650
1303
1141
1258
1691
2192
2416
2239
1846
1457
1221
1219
1558
2042
2378
2320
1998
1608
1307
1209
1431
1900
2331
2411
2143
1741
1389
1216
1323
1758
2251
2471
2291
1925
1530
1266
1262
1600
2114
2479
2418
2083
1680
1375
1272
1506
1978
2432
2527
2261
1864
1513
1341
1445
1871
2365
2608
2429
2057
1667
1424
1429
1775
2290
2658
2606
2274
1879
1583
1473
1706
2166
2597
2672
2390
1984
1616
1418
1507
1924
2416
2655
2480
2108
1712
1454
1434
1751
2249
2597
2527
2186
1770
1440
1323
1523
1994
2421
2496
2224
1814
1467
1295
1392
1817
2309
2544
2367
1986
1588
1317
1296
1623
2124
2486
2451
2127
1709
1389
1279
1474
1964
2416
2519
2261
1859
1497
1312
1401
1807
2288
2510
2321
1944
1535
1309
1296
1617
2127
2495
2449
2123
1703
1375
1264
1477
1936
2384
2486
2225
1815
1458
1275
1361
1783
2286
2531
2368
1994
1604
1338
1317
1637
2129
2487
2447
2122
1712
1391
1281
1502
1984
2445
2559
2306
1909
1535
1360
1449
1867
2358
2598
2407
2014
1603
1351
1306
1606
2107
2480
2448
2123
1707
1384
1275
1471
1948
2403
2510
2255
1853
1488
1296
1375
1791
2287
2535
2369
1992
1622
1385
1403
1776
2337
2771
2809
2544
2195
1902
1766
1922
2325
2717
2767
2445
1982
1552
1274
1262
1600
2043
2277
2137
1799
1446
1227
1238
1584
2105
2486
2455
2137
1732
1402
1278
1456
1934
2401
2525
2274
1877
1510
1309
1382
1791
2287
2546
2394
2023
1629
1360
1328
1631
2128
2498
2486
2176
1770
1441
1314
1504
1963
2423
2555
2316
1931
1572
1371
1425
1833
2320
2589
2437
2078
1683
1424
1393
1691
2192
2559
2559
2256
1869
1553
1415
1590
2047
2513
2660
2425
2057
1705
1515
1585
1966
2452
2722
2559
2213
1818
1557
1518
1815
2303
2688
2667
2346
1935
1607
1469
1654
2106
2550
2679
2423
2017
1648
1424
1475
1870
2361
2624
2442
2039
1600
1297
1225
1474
1936
2270
2217
1867
1435
1107
969
1150
1595
2064
2195
1943
1534
1157
945
1002
1398
1904
2179
2035
1662
1247
993
958
1252
1753
2154
2145
1827
1417
1088
952
1138
1589
2055
2194
1955
1566
1196
978
1043
1444
1958
2245
2111
1740
1335
1064
1014
1297
1802
2185
2182
1874
1474
1165
1040
1227
1687
2160
2294
2045
1657
1296
1093
1156
1535
2032
2318
2193
1844
1449
1168
1131
1407
1914
2317
2327
2032
1637
1314
1193
1363
1831
2298
2449
2214
1810
1434
1223
1287
1681
2186
2448
2294
1910
1509
1227
1179
1459
1968
2378
2395
2107
1696
1362
1230
1379
1845
2311
2465
2234
1840
1463
1258
1319
1727
2256
2592
2523
2219
1871
1658
1663
1971
2485
2885
2877
2522
2079
1680
1471
1569
1915
2291
2368
2078
1655
1277
1079
1155
1578
2116
2448
2352
2016
1628
1349
1290
1568
2067
2471
2496
2205
1803
1463
1326
1456
1919
2391
2549
2337
1954
1572
1340
1379
1761
2261
2559
2447
2101
1698
1424
1374
1653
2151
2553
2559
2267
1870
1553
1408
1555
1993
2462
2627
2415
2027
1662
1446
1489
1869
2370
2686
2559
2218
1835
1535
1487
1766
2255
2670
2697
2409
2022
1708
1571
1712
2179
2655
2823
2608
2224
1853
1647
1686
2061
2559
2871
2749
2368
1959
1674
1610
1868
2347
2750
2769
2470
2071
1729
1583
1723
2162
2625
2783
2546
2141
1754
1517
1533
1903
2399
2696
2559
2211
1808
1506
1438
1699
2182
2581
2607
2304
1899
1567
1412
1569
2021
2495
2669
2445
2034
1648
1424
1451
1817
2319
2639
2523
2167
1763
1473
1411
1680
2176
2582
2615
2306
1904
1562
1408
1552
1998
2470
2643
2426
2039
1660
1421
1454
1823
2315
2619
2510
2169
1761
1458
1379
1631
2126
2539
2559
2279
1887
1553
1393
1509
1938
2421
2619
2420
2053
1671
1442
1465
1822
2310
2618
2507
2160
1767
1480
1418
1679
2183
2608
2640
2350
1937
1593
1426
1567
1984
2446
2617
2390
1995
1617
1387
1405
1761
2261
2559
2480
2128
1730
1420
1337
1591
2095
2529
2559
2288
1865
1507
1339
1453
1878
2342
2522
2331
1976
1647
1478
1569
1973
2531
2901
2839
2503
2105
1785
1659
1838
2265
2624
2603
2230
1744
1323
1109
1198
1627
2119
2334
2151
1792
1436
1229
1265
1635
2138
2460
2384
2018
1639
1340
1264
1499
1985
2409
2454
2177
1781
1429
1265
1387
1829
2305
2501
2300
1903
1518
1285
1298
1658
2176
2511
2434
2098
1680
1374
1291
1527
2019
2446
2499
2213
1808
1463
1293
1422
1845
2337
2544
2349
1953
1567
1331
1343
1702
2217
2544
2467
2132
1739
1446
1378
1619
2109
2535
2603
2321
1926
1586
1421
1535
1978
2461
2672
2485
2107
1714
1469
1471
1823
2327
2671
2559
2234
1825
1513
1421
1649
2127
2551
2619
2330
1919
1563
1369
1478
1908
2379
2559
2353
1956
1553
1296
1302
1641
2126
2455
2381
2039
1642
1333
1247
1485
1983
2407
2457
2176
1774
1413
1243
1356
1781
2267
2488
2305
1914
1525
1285
1297
1650
2160
2482
2391
2045
1643
1342
1264
1486
1968
2403
2477
2201
1805
1450
1277
1382
1807
2288
2501
2311
1937
1563
1312
1317
1662
2160
2509
2442
2086
1663
1360
1264
1474
1948
2375
2448
2180
1791
1439
1267
1378
1805
2290
2511
2324
1946
1561
1317
1314
1629
2149
2493
2423
2077
1667
1360
1263
1478
1968
2419
2505
2255
1865
1515
1341
1432
1840
2321
2534
2343
1951
1558
1303
1286
1614
2104
2447
2393
2059
1646
1332
1238
1453
1933
2369
2455
2176
1761
1403
1234
1343
1761
2246
2475
2288
1901
1515
1295
1319
1705
2262
2687
2699
2429
2102
1862
1808
2020
2453
2841
2876
2527
2058
1613
1328
1314
1644
2071
2270
2074
1682
1317
1105
1133
1489
2021
2409
2368
2044
1647
1335
1232
1439
1917
2359
2452
2189
1781
1431
1262
1345
1744
2229
2469
2298
1926
1535
1296
1291
1616
2131
2482
2425
2091
1680
1374
1265
1457
1926
2377
2471
2215
1822
1475
1291
1381
1824
2298
2529
2371
2009
1636
1378
1370
1687
2175
2528
2490
2174
1779
1471
1361
1575
2065
2510
2619
2367
1975
1626
1453
1558
1971
2482
2736
2559
2202
1808
1556
1535
1847
2352
2733
2695
2368
1968
1647
1520
1711
2163
2608
2704
2436
2018
1653
1466
1558
1968
2453
2702
2532
2156
1751
1474
1441
1733
2211
2559
2530
2195
1779
1445
1335
1526
1999
2448
2558
2303
1904
1535
1355
1430
1815
2298
2547
2391
2027
1642
1387
1364
1675
2163
2527
2493
2175
1767
1442
1327
1521
1995
2454
2559
2318
1907
1535
1340
1423
1831
2327
2589
2429
2064
1666
1401
1359
1659
2159
2525
2496
2166
1758
1445
1343
1535
2018
2486
2611
2339
1936
1571
1353
1424
1826
2317
2559
2397
2037
1655
1397
1383
1693
2177
2544
2514
2199
1790
1466
1351
1535
1999
2448
2559
2320
1943
1594
1402
1485
1907
2415
2677
2522
2160
1756
1479
1436
1727
2210
2582
2546
2223
1791
1456
1329
1511
1968
2417
2534
2288
1895
1534
1355
1434
1846
2347
2614
2464
2098
1690
1408
1362
1650
2128
2496
2483
2192
1840
1579
1505
1753
2286
2811
3005
2812
2434
2064
1815
1814
2144
2582
2784
2559
2109
1615
1248
1133
1370
1867
2285
2320
2064
1706
1409
1312
1501
1974
2442
2559
2306
1915
1535
1349
1424
1838
2331
2607
2448
2077
1684
1410
1377
1677
2167
2547
2531
2225
1827
1509
1396
1577
2028
2496
2639
2385
1990
1627
1424
1487
1875
2373
2645
2508
2155
1759
1487
1446
1740
2245
2644
2650
2336
1927
1603
1473
1648
2101
2558
2703
2467
2093
1743
1535
1614
2000
2499
2796
2675
2321
1939
1685
1646
1904
2391
2798
2804
2509
2122
1798
1666
1835
2274
2723
2864
2626
2226
1855
1633
1680
2064
2557
2846
2702
2314
1897
1617
1574
1850
2320
2704
2703
2385
1983
1632
1475
1622
2065
2517
2667
2423
2019
1645
1426
1473
1856
2341
2622
2495
2137
1731
1447
1392
1667
2163
2559
2559
2272
1868
1535
1398
1535
1998
2451
2599
2365
1985
1616
1405
1449
1823
2318
2613
2475
2112
1707
1420
1373
1646
2133
2517
2523
2224
1822
1485
1335
1488
1942
2415
2559
2339
1947
1568
1343
1382
1758
2251
2544
2428
2074
1679
1408
1345
1618
2110
2497
2512
2198
1789
1450
1322
1471
1934
2399
2559
2351
1957
1583
1362
1402
1769
2257
2549
2434
2085
1693
1415
1357
1626
2127
2534
2549
2251
1847
1514
1358
1499
1936
2415
2582
2355
1955
1575
1350
1375
1739
2229
2530
2418
2075
1669
1392
1334
1614
2105
2498
2515
2221
1817
1469
1309
1447
1894
2359
2538
2352
2026
1726
1584
1682
2113
2669
3003
2866
2479
2022
1680
1535
1725
2142
2479
2431
2061
1595
1217
1044
1189
1669
2190
2393
2202
1830
1458
1245
1293
1658
2166
2485
2385
2033
1637
1347
1280
1533
2022
2431
2458
2151
1743
1412
1274
1413
1843
2331
2502
2292
1909
1534
1307
1334
1699
2203
2512
2411
2058
1664
1385
1314
1566
2047
2454
2484
2190
1778
1441
1296
1446
1917
2387
2559
2368
1984
1600
1374
1395
1756
2261
2581
2479
2137
1751
1471
1408
1670
2158
2559
2618
2339
1947
1617
1463
1581
2007
2481
2675
2463
2084
1706
1461
1485
1847
2351
2673
2579
2229
1825
1525
1447
1686
2160
2559
2603
2295
1890
1535
1381
1498
1920
2390
2581
2359
1953
1555
1302
1299
1649
2155
2466
2381
2030
1618
1316
1248
1507
1991
2405
2448
2147
1741
1407
1266
1406
1840
2317
2507
2302
1908
1525
1296
1315
1670
2170
2492
2398
2057
1661
1380
1303
1535
2033
2446
2485
2195
1791
1443
1278
1402
1843
2320
2511
2309
1920
1531
1301
1312
1665
2176
2502
2422
2074
1658
1344
1263
1504
1994
2416
2461
2182
1778
1431
1271
1392
1825
2311
2512
2321
1943
1553
1310
1317
1655
2151
2491
2416
2079
1680
1380
1296
1526
2019
2447
2500
2220
1825
1479
1313
1436
1863
2347
2558
2361
1973
1600
1378
1394
1736
2252
2591
2518
2186
1783
1487
1391
1606
2073
2487
2554
2262
1843
1483
1310
1419
1853
2345
2554
2366
1989
1610
1367
1363
1723
2215
2556
2483
2144
1737
1424
1324
1535
2010
2434
2513
2270
1925
1652
1561
1738
2227
2783
3071
2917
2544
2153
1870
1815
2096
2503
2773
2618
2183
1696
1319
1174
1362
1839
2289
2382
2128
1752
1426
1278
1392
1824
2341
2559
2388
2007
1618
1363
1365
1707
2213
2544
2463
2141
1744
1439
1360
1583
2057
2487
2559
2293
1898
1535
1374
1477
1902
2393
2624
2432
2059
1680
1433
1434
1771
2283
2618
2544
2204
1797
1503
1408
1626
2111
2547
2634
2352
1950
1601
1429
1535
1968
2458
2690
2508
2126
1754
1517
1502
1841
2352
2713
2671
2322
1923
1623
1527
1750
2239
2676
2752
2469
2077
1716
1553
1677
2094
2559
2784
2603
2215
1809
1554
1527
1841
2334
2683
2614
2271
1863
1552
1447
1646
2098
2527
2610
2321
1905
1531
1327
1410
1829
2309
2533
2359
1984
1600
1341
1328
1654
2140
2490
2432
2091
1680
1375
1275
1472
1950
2385
2476
2215
1808
1436
1255
1345
1761
2249
2479
2304
1913
1526
1281
1274
1613
2115
2480
2437
2112
1694
1371
1262
1456
1904
2350
2452
2179
1776
1423
1243
1329
1740
2224
2454
2288
1907
1507
1249
1232
1535
2061
2416
2375
2047
1626
1309
1190
1392
1870
2319
2410
2155
1761
1403
1207
1275
1680
2169
2413
2253
1873
1488
1235
1204
1531
2033
2405
2365
2035
1634
1327
1218
1404
1857
2299
2405
2160
1766
1418
1235
1328
1747
2253
2498
2345
1984
1600
1349
1323
1632
2133
2498
2467
2139
1725
1362
1242
1418
1859
2314
2437
2195
1807
1450
1269
1344
1738
2217
2455
2294
1911
1514
1258
1263
1600
2086
2425
2365
2028
1617
1322
1235
1462
1983
2495
2681
2496
2164
1841
1661
1707
2058
2476
2657
2416
1939
1423
1040
874
1056
1471
1787
1729
1393
994
705
627
842
1323
1823
1957
1707
1297
930
735
799
1205
1714
1983
1839
1472
1083
832
816
1091
1584
1966
1965
1648
1262
944
841
1023
1488
1945
2085
1856
1481
1137
941
1002
1403
1904
2170
2038
1712
1328
1079
1050
1348
1855
2241
2218
1887
1483
1179
1070
1263
1742
2217
2362
2131
1753
1392
1168
1200
1589
2098
2341
2175
1790
1373
1069
997
1271
1757
2125
2085
1767
1369
1068
943
1104
1559
2012
2146
1907
1517
1155
961
1039
1435
1938
2215
2083
1716
1317
1054
1019
1314
1799
2191
2177
1842
1410
1074
944
1127
1603
2065
2198
1961
1569
1197
997
1056
1438
1937
2209
2065
1699
1327
1083
1061
1350
1856
2242
2234
1919
1511
1201
1088
1265
1744
2210
2347
2112
1729
1360
1141
1193
1585
2097
2387
2258
1903
1513
1253
1215
1488
1987
2384
2391
2099
1712
1388
1259
1422
1883
2347
2490
2258
1866
1485
1275
1333
1737
2244
2525
2400
2045
1659
1390
1347
1642
2141
2529
2522
2209
1803
1481
1345
1505
1968
2435
2615
2386
2002
1645
1417
1461
1846
2343
2637
2500
2145
1755
1488
1453
1741
2242
2643
2651
2341
1933
1602
1459
1639
2089
2546
2719
2498
2130
1776
1579
1631
2011
2507
2791
2649
2270
1861
1582
1535
1831
2319
2718
2711
2394
1984
1649
1518
1683
2142
2618
2767
2517
2112
1737
1530
1595
1958
2466
2767
2640
2267
1865
1589
1552
1843
2378
2836
2927
2693
2359
2089
1979
2151
2608
3063
3199
2897
2438
1991
1699
1662
1952
2371
2610
2450
2091
1693
1428
1408
1714
2235
2673
2704
2409
2027
1706
1561
1699
2147
2619
2775
2551
2174
1801
1585
1617
1989
2498
2802
2695
2331
1938
1667
1602
1872
2363
2770
2799
2491
2103
1776
1634
1778
2211
2667
2831
2609
2218
1851
1630
1671
2046
2543
2833
2723
2383
1995
1729
1675
1929
2419
2827
2853
2548
2149
1793
1645
1797
2252
2736
2910
2699
2315
1954
1744
1792
2158
2683
3015
2902
2544
2160
1883
1827
2086
2559
2970
2982
2687
2273
1923
1773
1919
2364
2832
3003
2768
2369
2001
1800
1825
2174
2662
2958
2833
2465
2063
1759
1679
1909
2382
2789
2815
2512
2112
1759
1607
1735
2157
2593
2755
2535
2165
1797
1582
1606
1970
2455
2768
2654
2311
1924
1641
1563
1809
2304
2729
2757
2457
2070
1726
1571
1698
2128
2609
2789
2559
2199
1823
1611
1639
1985
2485
2805
2704
2339
1931
1635
1554
1803
2294
2710
2757
2454
2059
1715
1565
1695
2140
2621
2798
2589
2200
1818
1585
1602
1939
2433
2741
2649
2307
1914
1627
1564
1818
2295
2711
2749
2447
2047
1713
1535
1669
2124
2609
2797
2587
2198
1814
1588
1603
1953
2459
2779
2675
2323
1919
1637
1566
1808
2288
2703
2737
2447
2046
1709
1557
1683
2112
2583
2786
2586
2208
1843
1628
1662
2002
2512
2868
2793
2417
1989
1678
1584
1810
2279
2687
2729
2423
2017
1681
1517
1635
2062
2538
2748
2543
2162
1788
1556
1584
1934
2410
2709
2613
2256
1854
1535
1446
1687
2194
2666
2785
2559
2235
1962
1882
2067
2546
3067
3293
3024
2559
2129
1837
1772
2032
2435
2663
2479
2073
1629
1314
1232
1487
2000
2461
2547
2288
1893
1559
1409
1535
1984
2468
2681
2481
2091
1699
1461
1488
1825
2315
2651
2559
2211
1815
1520
1455
1690
2176
2599
2659
2385
1979
1633
1450
1565
2006
2503
2711
2513
2135
1751
1509
1511
1843
2337
2665
2589
2258
1875
1584
1491
1716
2206
2630
2711
2433
2035
1701
1535
1647
2067
2557
2794
2608
2224
1836
1600
1601
1939
2435
2786
2721
2389
2001
1725
1646
1867
2333
2770
2853
2577
2187
1845
1679
1785
2198
2672
2877
2671
2276
1890
1655
1651
1969
2452
2793
2722
2378
1969
1654
1535
1753
2222
2637
2703
2410
1993
1631
1454
1557
1973
2448
2655
2464
2079
1680
1415
1399
1723
2224
2559
2512
2188
1800
1489
1400
1606
2080
2511
2593
2315
1909
1561
1381
1460
1857
2345
2581
2413
2047
1675
1425
1424
1760
2249
2590
2513
2170
1762
1456
1371
1606
2080
2497
2559
2275
1875
1517
1337
1435
1835
2327
2559
2391
2019
1641
1389
1378
1710
2206
2555
2511
2202
1791
1456
1339
1535
2033
2483
2578
2304
1910
1557
1363
1444
1854
2341
2559
2390
2023
1648
1392
1365
1671
2173
2537
2494
2167
1762
1456
1344
1568
2046
2494
2580
2306
1904
1534
1359
1457
1853
2354
2602
2429
2055
1676
1427
1430
1766
2267
2623
2559
2259
1867
1565
1445
1633
2096
2505
2603
2318
1895
1531
1351
1452
1867
2352
2580
2409
2039
1662
1407
1392
1712
2212
2559
2508
2176
1775
1457
1345
1535
1994
2437
2559
2353
2025
1746
1631
1787
2273
2835
3153
3006
2607
2155
1829
1741
1963
2378
2663
2522
2112
1616
1241
1098
1299
1782
2255
2390
2170
1813
1486
1321
1418
1862
2335
2581
2415
2045
1661
1408
1392
1697
2181
2533
2491
2177
1778
1462
1359
1557
2022
2478
2606
2359
1953
1584
1386
1465
1888
2370
2624
2458
2109
1728
1471
1443
1746
2227
2601
2559
2247
1849
1535
1442
1635
2101
2553
2679
2421
2027
1674
1488
1574
1978
2471
2736
2591
2226
1853
1598
1578
1873
2381
2770
2746
2415
2022
1724
1630
1838
2303
2763
2893
2640
2243
1872
1680
1763
2167
2661
2923
2752
2378
1982
1715
1687
1984
2480
2851
2811
2465
2045
1707
1573
1747
2203
2635
2736
2473
2075
1711
1503
1578
1968
2432
2670
2496
2124
1712
1431
1392
1693
2192
2559
2559
2246
1831
1499
1375
1535
1997
2447
2559
2320
1934
1569
1377
1449
1835
2321
2590
2422
2057
1664
1401
1367
1670
2175
2546
2525
2206
1804
1475
1338
1516
1983
2440
2559
2311
1903
1526
1328
1387
1778
2271
2530
2394
2018
1638
1385
1363
1666
2171
2553
2515
2177
1754
1413
1287
1468
1947
2402
2531
2295
1895
1506
1296
1362
1766
2259
2519
2381
2002
1618
1358
1330
1625
2103
2466
2448
2135
1737
1419
1303
1479
1954
2423
2554
2306
1923
1571
1383
1453
1841
2342
2615
2463
2095
1679
1404
1346
1630
2119
2480
2459
2135
1717
1398
1266
1439
1922
2386
2523
2288
1891
1511
1297
1365
1775
2270
2539
2397
2026
1621
1322
1264
1571
2102
2547
2623
2373
2042
1796
1745
1971
2449
2907
3013
2722
2259
1808
1520
1488
1787
2194
2385
2192
1786
1373
1110
1081
1381
1904
2319
2351
2093
1714
1408
1293
1467
1903
2337
2461
2206
1805
1438
1250
1328
1727
2226
2499
2352
1991
1616
1361
1328
1611
2096
2474
2471
2163
1761
1449
1341
1525
1971
2431
2559
2321
1920
1533
1322
1378
1778
2277
2539
2405
2071
1696
1429
1374
1655
2157
2531
2529
2224
1824
1513
1392
1559
2006
2477
2618
2385
2007
1647
1438
1500
1903
2409
2699
2587
2240
1863
1599
1553
1831
2327
2729
2735
2423
2015
1680
1535
1684
2142
2608
2764
2518
2128
1744
1529
1573
1927
2407
2673
2523
2160
1754
1456
1392
1650
2128
2517
2527
2225
1810
1477
1339
1482
1915
2372
2525
2286
1885
1509
1290
1329
1690
2177
2464
2341
1968
1578
1302
1245
1520
2015
2407
2406
2096
1690
1379
1280
1455
1891
2331
2470
2235
1829
1451
1250
1312
1710
2215
2501
2374
2014
1616
1328
1263
1520
1994
2379
2384
2096
1699
1377
1217
1349
1806
2293
2463
2240
1850
1463
1245
1280
1650
2151
2445
2331
1974
1586
1326
1276
1525
2007
2409
2409
2108
1689
1335
1205
1360
1807
2290
2463
2241
1857
1471
1253
1283
1659
2159
2449
2330
1974
1585
1327
1286
1573
2077
2473
2476
2145
1727
1393
1264
1405
1843
2293
2435
2211
1815
1430
1191
1219
1600
2097
2405
2301
1934
1535
1264
1209
1472
1974
2365
2381
2077
1652
1298
1139
1286
1762
2273
2495
2338
2019
1718
1561
1647
2054
2559
2863
2714
2294
1823
1471
1356
1559
1975
2288
2222
1846
1392
1068
939
1120
1620
2117
2320
2129
1762
1408
1208
1259
1623
2115
2417
2311
1959
1559
1269
1203
1459
1970
2374
2405
2125
1711
1353
1197
1335
1792
2288
2478
2277
1881
1507
1283
1296
1663
2161
2455
2349
1995
1611
1328
1278
1552
2044
2450
2479
2185
1780
1443
1294
1442
1895
2378
2559
2362
1977
1597
1370
1401
1758
2255
2559
2477
2128
1728
1453
1404
1679
2192
2626
2661
2349
1939
1623
1485
1637
2098
2599
2783
2553
2159
1780
1561
1593
1939
2427
2726
2617
2259
1867
1578
1507
1755
2240
2640
2671
2363
1951
1600
1427
1558
1991
2450
2624
2399
2006
1631
1408
1427
1773
2255
2547
2447
2104
1709
1431
1366
1613
2082
2483
2512
2223
1827
1503
1359
1485
1927
2384
2559
2367
1983
1618
1397
1424
1778
2287
2601
2497
2155
1756
1475
1409
1662
2128
2549
2605
2320
1921
1597
1422
1535
1972
2443
2640
2443
2082
1712
1477
1488
1851
2352
2671
2559
2203
1811
1510
1423
1664
2130
2547
2607
2325
1941
1613
1446
1559
1979
2462
2667
2474
2102
1731
1506
1520
1872
2367
2692
2608
2261
1865
1559
1470
1714
2207
2642
2717
2438
2045
1714
1568
1680
2100
2559
2768
2532
2128
1729
1487
1505
1862
2368
2698
2611
2263
1863
1578
1499
1741
2208
2622
2674
2391
1987
1648
1478
1610
2035
2513
2725
2527
2144
1762
1535
1590
1983
2532
2916
2880
2599
2256
2000
1920
2128
2559
2945
2954
2624
2158
1727
1472
1489
1831
2254
2426
2246
1893
1535
1345
1391
1754
2271
2622
2543
2203
1809
1519
1438
1676
2152
2559
2631
2351
1951
1611
1439
1565
1993
2479
2692
2508
2129
1741
1493
1488
1823
2323
2658
2559
2239
1852
1555
1472
1716
2202
2626
2691
2409
2007
1669
1503
1622
2047
2522
2737
2541
2165
1790
1554
1582
1921
2416
2751
2679
2341
1948
1665
1600
1843
2339
2782
2863
2587
2191
1853
1696
1811
2240
2733
2945
2765
2396
2030
1802
1811
2144
2638
2980
2910
2559
2174
1879
1797
2026
2502
2925
3003
2704
2299
1939
1739
1822
2240
2723
2928
2722
2337
1950
1693
1680
1994
2475
2803
2719
2381
1993
1690
1584
1790
2249
2672
2736
2426
2011
1664
1498
1621
2062
2549
2772
2591
2214
1840
1600
1591
1906
2391
2722
2662
2323
1932
1628
1525
1740
2207
2641
2720
2436
2036
1687
1522
1633
2059
2535
2753
2544
2160
1783
1535
1535
1877
2364
2704
2631
2288
1876
1563
1468
1711
2192
2635
2700
2401
1994
1663
1494
1606
2021
2490
2709
2519
2141
1754
1510
1508
1837
2331
2673
2597
2245
1859
1565
1468
1687
2159
2595
2671
2393
1985
1635
1450
1554
1975
2466
2694
2514
2136
1755
1508
1519
1863
2365
2705
2624
2278
1882
1610
1523
1719
2147
2559
2640
2363
1956
1594
1395
1483
1903
2384
2613
2432
2081
1718
1472
1451
1753
2235
2581
2512
2182
1777
1457
1358
1566
2045
2517
2641
2419
2098
1824
1721
1872
2325
2871
3158
2970
2529
2094
1789
1708
1936
2346
2599
2458
2021
1526
1189
1098
1312
1808
2273
2385
2138
1771
1439
1271
1357
1776
2258
2496
2333
1973
1594
1344
1329
1655
2148
2493
2444
2123
1727
1397
1279
1484
1966
2417
2509
2247
1845
1490
1302
1387
1802
2279
2514
2353
1974
1584
1334
1333
1671
2163
2509
2447
2119
1726
1431
1344
1559
2017
2449
2539
2273
1866
1503
1317
1402
1822
2323
2593
2436
2071
1693
1445
1442
1776
2283
2630
2557
2226
1824
1518
1441
1679
2160
2599
2690
2426
2029
1690
1503
1600
2015
2487
2710
2519
2129
1733
1474
1451
1759
2246
2613
2558
2205
1774
1440
1341
1533
1979
2401
2487
2222
1807
1440
1232
1281
1661
2152
2386
2208
1826
1423
1142
1081
1360
1850
2222
2176
1849
1450
1138
1036
1230
1686
2124
2211
1933
1521
1168
977
1049
1440
1924
2163
1999
1620
1229
974
949
1262
1757
2117
2070
1735
1325
1002
898
1101
1570
2027
2143
1888
1491
1157
970
1035
1414
1897
2139
1973
1611
1232
977
966
1289
1787
2139
2099
1779
1391
1072
977
1178
1655
2098
2193
1936
1535
1186
1018
1111
1515
1996
2243
2099
1731
1339
1079
1059
1363
1840
2199
2169
1856
1457
1168
1065
1249
1714
2164
2283
2034
1648
1301
1138
1233
1648
2159
2409
2239
1853
1459
1215
1191
1469
1963
2310
2269
1947
1563
1251
1129
1296
1775
2228
2341
2091
1689
1325
1127
1210
1626
2128
2384
2234
1871
1479
1246
1222
1499
1982
2341
2322
2026
1686
1445
1406
1677
2202
2698
2838
2624
2241
1851
1598
1616
1955
2385
2559
2315
1846
1367
1047
990
1296
1807
2194
2197
1908
1535
1254
1166
1369
1847
2306
2407
2157
1766
1405
1216
1281
1667
2163
2426
2288
1935
1559
1292
1273
1582
2074
2439
2415
2082
1665
1344
1237
1438
1937
2391
2503
2243
1826
1463
1280
1351
1754
2261
2519
2362
1991
1615
1360
1337
1640
2153
2529
2511
2166
1734
1414
1323
1522
1985
2453
2593
2352
1973
1631
1446
1518
1913
2403
2672
2541
2186
1794
1535
1508
1829
2326
2704
2687
2378
1983
1673
1567
1750
2202
2651
2795
2528
2139
1776
1582
1645
2019
2480
2714
2543
2173
1776
1507
1466
1754
2239
2623
2598
2256
1835
1489
1359
1526
1971
2420
2534
2259
1857
1489
1294
1353
1727
2218
2467
2309
1939
1552
1287
1238
1527
2005
2367
2327
1999
1600
1279
1168
1346
1813
2277
2392
2141
1739
1360
1143
1200
1600
2095
2352
2201
1836
1453
1203
1173
1456
1942
2337
2327
2004
1606
1283
1155
1315
1767
2217
2343
2103
1711
1349
1168
1225
1605
2086
2350
2221
1870
1488
1229
1186
1460
1954
2331
2315
1998
1596
1280
1168
1360
1818
2287
2423
2194
1806
1439
1244
1302
1686
2181
2448
2315
1942
1535
1281
1259
1565
2064
2432
2408
2106
1712
1397
1280
1456
1929
2391
2512
2275
1887
1523
1312
1351
1740
2215
2476
2337
1967
1585
1328
1292
1587
2074
2455
2445
2138
1743
1419
1293
1472
1931
2384
2525
2285
1884
1514
1305
1364
1773
2301
2639
2559
2256
1923
1728
1750
2061
2545
2918
2882
2512
2047
1664
1462
1558
1944
2324
2399
2115
1696
1338
1151
1253
1680
2206
2496
2378
2021
1638
1373
1333
1629
2115
2503
2496
2194
1805
1489
1389
1563
2019
2479
2618
2374
1984
1635
1437
1491
1881
2337
2603
2454
2097
1712
1462
1431
1722
2211
2607
2594
2285
1889
1562
1418
1581
2027
2508
2672
2439
2057
1701
1494
1555
1929
2430
2702
2548
2185
1799
1535
1535
1837
2315
2709
2702
2379
1967
1639
1520
1706
2162
2642
2805
2588
2214
1875
1693
1750
2128
2610
2871
2730
2356
1967
1717
1680
1947
2429
2801
2787
2465
2046
1699
1535
1715
2182
2642
2793
2544
2131
1744
1520
1571
1943
2434
2704
2559
2176
1771
1491
1450
1730
2224
2618
2609
2288
1877
1535
1403
1570
2021
2480
2625
2389
2001
1646
1442
1520
1903
2387
2665
2513
2149
1746
1491
1463
1749
2241
2638
2630
2311
1903
1569
1423
1590
2031
2499
2652
2415
2017
1648
1435
1487
1867
2359
2643
2511
2158
1762
1478
1431
1712
2196
2595
2593
2272
1862
1527
1399
1571
2025
2482
2634
2378
1999
1637
1430
1494
1897
2368
2634
2487
2128
1726
1439
1378
1658
2149
2544
2547
2241
1825
1490
1360
1531
2000
2471
2627
2384
1984
1615
1398
1445
1826
2323
2614
2485
2127
1738
1467
1424
1705
2190
2559
2559
2255
1856
1535
1425
1603
2059
2522
2672
2434
2035
1663
1455
1502
1889
2378
2655
2512
2147
1763
1466
1399
1665
2160
2538
2543
2234
1839
1515
1383
1553
2003
2461
2606
2363
1977
1606
1392
1430
1792
2257
2527
2419
2096
1757
1535
1565
1900
2435
2877
2942
2686
2318
1979
1808
1922
2322
2718
2786
2479
2001
1535
1247
1232
1571
2064
2374
2293
1979
1603
1330
1283
1571
2071
2466
2479
2181
1795
1475
1347
1506
1966
2419
2559
2329
1927
1561
1350
1407
1776
2262
2544
2433
2096
1712
1444
1397
1670
2146
2523
2522
2215
1811
1491
1365
1535
1999
2469
2624
2399
2009
1649
1441
1483
1850
2325
2609
2482
2131
1743
1475
1441
1728
2224
2617
2620
2318
1919
1597
1463
1630
2085
2546
2709
2487
2111
1741
1555
1627
2016
2497
2791
2674
2320
1933
1667
1635
1911
2402
2794
2800
2476
2081
1758
1616
1755
2192
2650
2800
2558
2165
1795
1574
1615
1968
2448
2725
2587
2222
1822
1535
1475
1725
2192
2583
2579
2265
1856
1520
1377
1535
1999
2473
2618
2355
1949
1557
1328
1372
1759
2257
2553
2423
2071
1680
1408
1355
1618
2102
2493
2493
2177
1763
1434
1311
1483
1941
2414
2559
2341
1952
1583
1367
1414
1785
2259
2544
2424
2071
1647
1339
1271
1559
2065
2475
2486
2179
1770
1437
1299
1461
1918
2387
2541
2313
1926
1571
1347
1387
1759
2253
2533
2411
2057
1639
1358
1295
1568
2067
2460
2471
2177
1776
1442
1307
1473
1936
2400
2558
2331
1929
1535
1307
1341
1712
2214
2512
2398
2037
1647
1358
1299
1584
2077
2474
2487
2176
1762
1425
1293
1463
1923
2399
2555
2346
1949
1557
1339
1377
1743
2235
2533
2405
2076
1680
1395
1331
1600
2096
2494
2495
2186
1759
1445
1311
1477
1945
2445
2623
2400
2007
1651
1429
1472
1847
2339
2631
2501
2129
1715
1421
1349
1611
2105
2507
2525
2221
1805
1474
1339
1492
1949
2419
2581
2348
1968
1600
1378
1418
1779
2274
2557
2423
2064
1671
1419
1417
1769
2335
2794
2897
2663
2329
2064
1943
2094
2491
2910
3013
2709
2225
1750
1424
1361
1637
2064
2322
2194
1847
1474
1239
1225
1526
2055
2487
2517
2225
1827
1487
1349
1501
1942
2398
2551
2327
1930
1535
1328
1373
1758
2278
2580
2448
2091
1707
1435
1371
1641
2116
2514
2529
2220
1807
1463
1326
1483
1937
2407
2558
2311
1939
1579
1389
1433
1809
2311
2617
2498
2134
1726
1425
1367
1648
2157
2580
2620
2320
1914
1584
1440
1605
2064
2519
2689
2463
2086
1715
1513
1579
1963
2469
2775
2658
2309
1925
1680
1639
1918
2410
2813
2826
2505
2094
1744
1600
1750
2197
2670
2841
2607
2210
1845
1647
1679
2006
2475
2768
2640
2263
1875
1597
1505
1754
2224
2610
2621
2289
1872
1534
1389
1535
1978
2442
2599
2368
1963
1584
1342
1379
1751
2241
2534
2421
2074
1664
1379
1329
1607
2105
2490
2494
2192
1791
1456
1311
1456
1920
2394
2559
2335
1928
1520
1296
1333
1709
2214
2522
2417
2071
1679
1405
1351
1615
2094
2477
2491
2192
1802
1485
1346
1487
1928
2395
2549
2320
1936
1565
1346
1392
1764
2251
2537
2406
2044
1651
1376
1340
1622
2099
2485
2484
2163
1758
1427
1297
1456
1915
2385
2547
2321
1929
1553
1347
1387
1763
2255
2539
2423
2083
1689
1408
1349
1616
2093
2475
2480
2187
1783
1447
1314
1469
1929
2398
2546
2319
1923
1557
1360
1405
1762
2256
2550
2430
2066
1651
1351
1285
1568
2079
2501
2518
2214
1808
1463
1323
1471
1925
2391
2559
2330
1933
1535
1316
1360
1761
2275
2559
2454
2102
1708
1424
1361
1616
2087
2467
2478
2197
1806
1484
1343
1487
1936
2403
2559
2347
1973
1616
1405
1444
1808
2291
2583
2466
2118
1725
1448
1397
1669
2170
2553
2549
2234
1817
1471
1315
1456
1917
2382
2545
2304
1923
1562
1345
1390
1755
2251
2538
2415
2032
1630
1356
1313
1597
2096
2482
2482
2174
1767
1418
1266
1424
1905
2414
2646
2493
2174
1872
1726
1832
2259
2768
3056
2871
2443
1984
1627
1489
1675
2071
2370
2292
1933
1507
1184
1078
1257
1738
2240
2427
2223
1858
1500
1283
1323
1697
2176
2470
2368
2015
1629
1359
1311
1579
2043
2448
2458
2143
1731
1412
1289
1447
1909
2375
2530
2315
1931
1552
1325
1360
1737
2233
2527
2397
2032
1646
1374
1331
1618
2107
2509
2517
2207
1808
1485
1359
1515
1966
2432
2595
2368
1981
1569
1360
1424
1803
2304
2609
2493
2163
1787
1509
1456
1727
2218
2622
2635
2331
1947
1632
1506
1687
2145
2613
2775
2543
2160
1793
1586
1618
1993
2499
2797
2659
2282
1898
1618
1563
1815
2277
2655
2655
2359
1958
1614
1451
1598
2029
2486
2647
2401
1999
1634
1429
1470
1822
2296
2558
2416
2035
1644
1370
1324
1583
2047
2445
2440
2127
1713
1393
1263
1410
1873
2351
2496
2273
1888
1511
1290
1296
1645
2133
2435
2332
1993
1617
1344
1293
1559
2038
2434
2444
2128
1722
1395
1265
1421
1885
2353
2498
2256
1859
1488
1281
1328
1702
2192
2481
2366
2007
1626
1344
1278
1535
2047
2453
2453
2133
1702
1347
1204
1363
1823
2283
2444
2224
1845
1479
1269
1311
1689
2187
2465
2346
1986
1591
1314
1261
1519
2002
2395
2403
2114
1723
1382
1232
1392
1854
2320
2470
2234
1844
1472
1274
1329
1712
2195
2482
2358
1988
1584
1294
1237
1519
2022
2416
2419
2099
1708
1395
1263
1415
1865
2343
2512
2285
1885
1509
1301
1345
1735
2230
2516
2394
2041
1664
1391
1324
1589
2086
2480
2490
2192
1794
1472
1344
1489
1923
2362
2480
2274
1895
1529
1327
1360
1721
2192
2468
2345
1990
1606
1326
1280
1559
2058
2454
2463
2158
1754
1424
1286
1440
1882
2327
2467
2225
1836
1474
1291
1381
1818
2374
2714
2640
2336
1997
1762
1712
1959
2400
2741
2688
2331
1873
1473
1243
1309
1683
2112
2250
2019
1639
1290
1118
1212
1616
2143
2461
2373
2006
1609
1328
1288
1569
2044
2432
2441
2140
1731
1406
1267
1421
1886
2352
2507
2277
1885
1527
1335
1381
1751
2241
2522
2397
2034
1678
1394
1333
1622
2112
2493
2495
2189
1787
1456
1323
1486
1954
2431
2591
2359
1952
1572
1361
1413
1796
2288
2559
2450
2107
1725
1472
1429
1713
2214
2621
2637
2320
1916
1595
1470
1635
2101
2559
2721
2495
2125
1778
1584
1639
2006
2510
2797
2662
2291
1889
1620
1574
1843
2326
2720
2736
2429
2031
1711
1561
1712
2150
2607
2723
2464
2067
1698
1489
1535
1911
2385
2646
2491
2115
1728
1449
1395
1664
2160
2526
2521
2197
1784
1456
1328
1488
1938
2399
2540
2304
1920
1557
1360
1408
1780
2260
2542
2403
2042
1662
1408
1378
1664
2160
2523
2497
2178
1772
1434
1312
1493
1957
2442
2599
2345
1942
1584
1378
1435
1811
2295
2559
2431
2073
1689
1420
1362
1643
2117
2497
2496
2192
1794
1471
1346
1514
1966
2421
2559
2323
1937
1578
1371
1434
1814
2304
2559
2432
2069
1680
1414
1370
1652
2133
2494
2474
2165
1767
1456
1334
1520
1984
2423
2550
2314
1919
1535
1347
1407
1783
2275
2547
2421
2064
1666
1389
1342
1627
2115
2496
2494
2192
1798
1479
1353
1511
1955
2405
2544
2320
1936
1577
1366
1424
1808
2285
2544
2407
2038
1652
1394
1364
1667
2174
2559
2557
2240
1829
1485
1339
1500
1978
2455
2613
2371
1989
1629
1419
1470
1860
2357
2624
2463
2097
1700
1423
1377
1660
2143
2513
2496
2163
1767
1446
1328
1501
1968
2429
2559
2322
1936
1582
1359
1402
1782
2256
2519
2398
2064
1712
1488
1515
1863
2413
2861
2913
2640
2263
1937
1787
1920
2325
2735
2809
2494
2011
1535
1251
1239
1579
2061
2333
2221
1899
1535
1293
1269
1573
2076
2470
2477
2174
1783
1475
1358
1518
1958
2415
2558
2310
1907
1535
1339
1406
1802
2299
2559
2423
2059
1664
1401
1375
1668
2176
2559
2550
2239
1832
1506
1392
1574
2021
2480
2614
2366
1969
1601
1395
1462
1857
2362
2645
2511
2141
1746
1488
1445
1739
2231
2603
2589
2290
1901
1579
1457
1653
2109
2547
2681
2439
2066
1723
1525
1605
2001
2502
2796
2662
2319
1941
1691
1662
1941
2429
2813
2793
2467
2073
1753
1637
1812
2281
2731
2855
2599
2192
1812
1600
1659
2033
2511
2763
2615
2248
1846
1571
1505
1782
2262
2625
2599
2283
1872
1535
1403
1562
2013
2466
2587
2320
1920
1552
1349
1408
1802
2289
2554
2416
2045
1659
1382
1336
1627
2126
2507
2503
2182
1771
1451
1331
1509
1967
2423
2546
2293
1895
1529
1330
1391
1785
2262
2511
2365
1978
1615
1360
1339
1647
2141
2499
2477
2151
1744
1427
1312
1485
1927
2381
2515
2271
1875
1514
1334
1407
1798
2275
2518
2371
1998
1615
1349
1312
1609
2110
2486
2467
2155
1749
1425
1305
1484
1948
2390
2511
2258
1865
1498
1298
1361
1758
2257
2512
2357
2000
1616
1365
1343
1651
2136
2497
2470
2147
1727
1396
1265
1450
1916
2372
2510
2271
1880
1523
1334
1405
1793
2275
2531
2381
2015
1618
1360
1328
1619
2112
2480
2455
2143
1728
1403
1289
1479
1947
2407
2541
2296
1890
1514
1308
1382
1778
2271
2544
2413
2057
1664
1390
1365
1677
2171
2544
2517
2205
1815
1509
1396
1593
2063
2509
2618
2352
1974
1616
1410
1482
1871
2338
2559
2410
2026
1631
1363
1330
1622
2135
2496
2454
2137
1725
1423
1323
1505
1975
2443
2559
2299
1877
1488
1274
1345
1757
2277
2559
2454
2153
1846
1662
1695
2064
2628
3067
3088
2753
2305
1927
1735
1837
2215
2559
2594
2239
1747
1327
1101
1157
1558
2062
2331
2207
1871
1504
1275
1277
1606
2114
2483
2447
2103
1692
1369
1264
1467
1922
2395
2510
2245
1843
1473
1290
1383
1799
2301
2546
2382
2000
1601
1350
1342
1654
2160
2542
2526
2211
1795
1462
1359
1535
1997
2420
2525
2275
1889
1535
1365
1455
1863
2363
2613
2446
2064
1680
1432
1427
1748
2247
2627
2605
2275
1870
1555
1456
1659
2127
2588
2705
2448
2067
1719
1520
1603
2003
2511
2759
2586
2203
1833
1606
1625
1958
2466
2827
2775
2442
2041
1728
1617
1819
2288
2735
2827
2554
2142
1754
1555
1653
2082
2559
2789
2593
2192
1773
1493
1472
1776
2273
2652
2598
2240
1804
1470
1349
1535
2006
2455
2559
2306
1906
1535
1355
1430
1832
2321
2559
2389
2004
1621
1362
1342
1648
2146
2499
2452
2125
1728
1414
1298
1503
1990
2447
2544
2274
1859
1494
1313
1398
1820
2321
2559
2406
2032
1647
1375
1349
1650
2158
2514
2474
2139
1730
1423
1326
1526
2006
2441
2498
2223
1822
1471
1290
1391
1814
2314
2559
2389
2000
1615
1345
1331
1658
2160
2497
2432
2102
1702
1401
1301
1514
1999
2443
2537
2272
1869
1502
1314
1399
1812
2297
2538
2368
1974
1575
1317
1311
1647
2157
2512
2462
2134
1730
1419
1321
1521
2000
2427
2515
2270
1887
1531
1348
1445
1840
2303
2519
2349
1982
1614
1377
1374
1697
2192
2551
2499
2162
1753
1449
1347
1552
2006
2439
2521
2256
1862
1513
1343
1429
1869
2367
2607
2435
2070
1691
1441
1438
1776
2263
2619
2550
2218
1837
1519
1418
1629
2101
2528
2619
2351
1953
1598
1398
1477
1887
2365
2559
2368
1979
1587
1343
1343
1681
2181
2527
2474
2155
1765
1450
1344
1527
2011
2445
2522
2241
1842
1494
1351
1494
1973
2522
2825
2716
2404
2070
1861
1872
2175
2623
2914
2795
2384
1920
1533
1348
1461
1851
2225
2285
2002
1622
1302
1168
1295
1710
2230
2475
2319
1961
1593
1355
1345
1665
2170
2514
2469
2139
1735
1429
1315
1501
1953
2397
2477
2211
1823
1488
1335
1445
1882
2365
2591
2401
2030
1646
1387
1377
1712
2212
2547
2487
2146
1748
1455
1355
1577
2069
2507
2586
2299
1901
1563
1408
1520
1950
2430
2641
2449
2064
1675
1421
1419
1776
2295
2649
2597
2261
1871
1578
1489
1727
2203
2646
2746
2478
2094
1759
1601
1703
2118
2608
2825
2638
2256
1889
1653
1663
1997
2486
2829
2753
2393
1978
1664
1577
1797
2278
2705
2770
2478
2074
1718
1529
1600
1999
2467
2678
2477
2094
1686
1425
1423
1755
2242
2559
2506
2163
1744
1422
1318
1531
2007
2447
2512
2239
1851
1499
1327
1431
1855
2339
2553
2368
1977
1585
1334
1344
1695
2199
2542
2467
2129
1728
1422
1328
1535
2027
2470
2549
2275
1865
1490
1315
1423
1847
2348
2584
2403
2017
1613
1347
1344
1694
2201
2543
2483
2160
1754
1451
1337
1555
2042
2479
2550
2259
1844
1491
1335
1450
1885
2381
2596
2390
2011
1622
1381
1385
1723
2221
2548
2483
2150
1739
1430
1338
1569
2043
2474
2544
2282
1881
1535
1360
1456
1885
2368
2583
2387
2011
1617
1370
1381
1731
2235
2559
2498
2165
1771
1459
1366
1603
2085
2501
2559
2286
1871
1505
1347
1468
1904
2384
2606
2416
2047
1663
1424
1431
1776
2270
2610
2530
2191
1801
1493
1411
1645
2112
2538
2607
2320
1919
1559
1371
1472
1904
2382
2598
2407
2027
1644
1394
1391
1740
2250
2585
2498
2160
1753
1440
1345
1579
2064
2487
2544
2259
1851
1492
1328
1469
1939
2469
2733
2589
2257
1936
1756
1806
2175
2672
2982
2852
2439
1977
1620
1476
1647
2034
2384
2377
2041
1617
1268
1115
1262
1734
2255
2476
2299
1939
1572
1333
1351
1705
2209
2542
2448
2111
1713
1418
