2904
3511
3712
3221
2589
2012
1701
1840
2481
3288
3760
3433
2813
2192
1775
1726
2211
2983
3632
3546
2988
2343
1843
1653
1962
2691
3438
3639
3182
2534
1970
1661
1780
2395
3175
3621
3333
2736
2129
1715
1669
2155
2929
3561
3501
2959
2307
1780
1570
1875
2608
3340
3551
3131
2480
1891
1563
1676
2299
3081
3525
3271
2680
2080
1651
1589
2061
2823
3439
3401
2870
2237
1728
1519
1813
2525
3264
3472
3057
2429
1845
1506
1602
2224
3005
3463
3227
2640
2014
1563
1483
1942
2715
3342
3327
2820
2192
1669
1442
1712
2417
3143
3357
2970
2357
1789
1439
1530
2146
2928
3387
3155
2559
1937
1488
1406
1857
2634
3267
3265
2771
2128
1583
1343
1609
2320
3057
3295
2911
2288
1697
1347
1424
2040
2823
3283
3079
2503
1882
1425
1339
1787
2554
3189
3192
2699
2064
1523
1294
1563
2289
3030
3274
2901
2295
1709
1350
1423
2027
2818
3298
3100
2512
1872
1398
1282
1718
2482
3135
3158
2683
2061
1515
1268
1500
2207
2943
3200
2832
2201
1590
1212
1263
1861
2655
3148
2954
2388
1752
1276
1155
1571
2340
2976
3014
2547
1915
1374
1122
1357
2064
2806
3083
2736
2128
1520
1137
1175
1750
2545
3071
2967
2490
1938
1535
1473
1943
2765
3488
3543
2997
2288
1639
1266
1382
1977
2629
2823
2448
1791
1152
763
795
1394
2233
2767
2653
2155
1535
1083
964
1388
2167
2835
2910
2465
1834
1276
1006
1218
1903
2686
2992
2674
2077
1455
1062
1085
1658
2449
2960
2830
2294
1667
1189
1055
1443
2215
2891
2978
2527
1897
1326
1046
1243
1936
2705
3019
2721
2131
1521
1127
1127
1671
2460
2991
2871
2339
1710
1215
1068
1453
2224
2897
3002
2559
1943
1374
1087
1271
1950
2717
3046
2747
2161
1561
1159
1164
1708
2490
3025
2927
2401
1759
1264
1108
1474
2237
2919
3038
2619
1999
1447
1166
1344
2018
2783
3125
2843
2257
1651
1247
1239
1788
2559
3122
3015
2493
1866
1364
1190
1535
2290
2983
3125
2703
2090
1534
1239
1392
2064
2801
3161
2877
2289
1677
1259
1231
1751
2531
3088
2991
2457
1810
1291
1090
1408
2145
2825
2945
2512
1885
1296
976
1114
1766
2529
2893
2624
2032
1393
960
924
1441
2229
2787
2715
2207
1570
1059
871
1205
1955
2658
2815
2423
1806
1236
929
1072
1718
2481
2850
2603
2018
1403
987
950
1462
2257
2831
2774
2266
1619
1106
910
1232
1981
2700
2870
2473
1845
1264
938
1060
1697
2479
2885
2647
2073
1439
1006
944
1438
2227
2809
2759
2263
1635
1126
922
1234
1979
2701
2877
2481
1857
1275
937
1041
1666
2448
2859
2635
2070
1439
997
929
1404
2191
2785
2757
2271
1638
1114
897
1193
1925
2647
2845
2473
1856
1264
918
1019
1650
2431
2842
2624
2041
1414
979
915
1393
2176
2781
2757
2256
1620
1087
863
1143
1877
2615
2833
2477
1858
1247
887
981
1617
2411
2839
2631
2064
1421
960
877
1341
2128
2741
2752
2278
1642
1099
853
1124
1856
2590
2810
2448
1839
1227
867
948
1579
2384
2835
2637
2079
1429
964
865
1317
2106
2736
2753
2298
1664
1136
901
1165
1893
2624
2863
2507
1899
1292
930
989
1599
2389
2853
2672
2121
1488
1017
908
1345
2128
2768
2777
2290
1637
1072
813
1058
1776
2531
2799
2463
1859
1255
880
927
1519
2311
2787
2626
2083
1427
945
843
1287
2092
2736
2778
2311
1662
1116
873
1136
1894
2711
3056
2778
2223
1680
1361
1450
2033
2791
3222
2968
2324
1611
1043
845
1183
1889
2480
2505
2057
1409
880
656
912
1655
2439
2742
2435
1851
1249
878
911
1486
2273
2768
2633
2099
1459
976
842
1247
2022
2688
2759
2326
1705
1150
880
1095
1776
2529
2835
2531
1936
1323
933
954
1527
2323
2832
2695
2160
1520
1031
877
1251
2025
2705
2797
2359
1727
1173
896
1094
1777
2535
2853
2559
1982
1375
976
981
1530
2322
2847
2729
2207
1581
1091
939
1313
2080
2754
2862
2446
1826
1265
954
1124
1803
2559
2907
2628
2047
1451
1054
1053
1591
2378
2914
2815
2300
1673
1178
1010
1375
2146
2835
2970
2551
1931
1365
1073
1244
1919
2688
3039
2763
2176
1563
1153
1139
1671
2457
3007
2906
2385
1760
1250
1082
1434
2189
2882
3009
2595
1994
1419
1107
1250
1891
2646
2987
2699
2097
1462
1022
971
1474
2260
2811
2731
2217
1583
1047
863
1179
1946
2640
2777
2377
1753
1183
871
1005
1669
2439
2815
2549
1967
1343
929
903
1424
2224
2794
2729
2226
1598
1098
912
1233
1972
2683
2843
2449
1839
1264
944
1072
1716
2487
2880
2642
2081
1462
1041
997
1495
2287
2867
2818
2327
1694
1167
960
1282
2033
2751
2915
2526
1915
1328
998
1123
1761
2544
2932
2727
2165
1535
1103
1045
1513
2302
2887
2838
2349
1716
1194
980
1280
2007
2729
2923
2544
1934
1349
1012
1120
1744
2512
2933
2718
2149
1517
1072
1007
1490
2299
2899
2874
2377
1739
1201
976
1264
1999
2731
2943
2559
1950
1355
995
1078
1693
2454
2875
2637
2032
1370
895
800
1254
2034
2640
2624
2133
1485
947
726
990
1712
2437
2657
2296
1690
1104
767
849
1463
2249
2685
2481
1922
1289
833
749
1201
1994
2628
2643
2165
1510
955
710
959
1680
2416
2649
2307
1703
1104
751
822
1420
2202
2641
2446
1883
1239
770
663
1102
1883
2500
2523
2076
1433
894
661
925
1633
2364
2609
2273
1666
1071
711
783
1385
2192
2665
2495
1954
1341
912
852
1334
2177
2875
2965
2559
1991
1481
1232
1424
2077
2754
2956
2555
1886
1216
773
752
1280
2041
2506
2370
1867
1268
827
738
1177
1973
2647
2721
2288
1662
1118
864
1091
1793
2544
2832
2512
1923
1328
944
973
1535
2347
2846
2699
2160
1524
1058
934
1359
2143
2805
2874
2429
1792
1242
976
1197
1899
2662
2962
2647
2047
1441
1058
1082
1649
2439
2958
2825
2288
1655
1172
1039
1425
2197
2860
2942
2513
1903
1345
1074
1283
1983
2751
3061
2743
2141
1520
1130
1155
1713
2505
3033
2928
2399
1777
1281
1143
1530
2287
2965
3071
2640
2010
1446
1163
1344
2027
2806
3156
2851
2253
1649
1268
1283
1839
2638
3185
3069
2538
1909
1421
1259
1631
2389
3082
3200
2758
2133
1582
1293
1470
2157
2928
3280
2975
2383
1764
1342
1344
1874
2669
3217
3109
2558
1915
1402
1219
1567
2303
2977
3087
2641
2000
1407
1088
1241
1904
2668
3006
2717
2126
1498
1088
1075
1597
2372
2912
2820
2302
1665
1152
975
1323
2089
2780
2906
2491
1859
1274
965
1134
1808
2589
2962
2705
2134
1498
1071
1039
1561
2356
2928
2858
2337
1689
1183
1007
1347
2112
2818
2967
2559
1949
1377
1065
1190
1840
2612
2997
2736
2156
1522
1106
1074
1583
2357
2929
2873
2371
1750
1232
1039
1353
2112
2813
2982
2581
1967
1384
1064
1190
1833
2617
3017
2775
2194
1575
1141
1094
1600
2384
2970
2919
2413
1763
1237
1039
1347
2096
2816
3005
2628
2011
1423
1097
1215
1856
2635
3035
2800
2224
1599
1169
1111
1595
2378
2977
2956
2468
1833
1300
1091
1386
2112
2846
3051
2677
2063
1472
1134
1231
1866
2654
3088
2864
2295
1669
1218
1139
1616
2395
2992
2973
2480
1844
1318
1104
1391
2126
2849
3071
2699
2082
1475
1129
1217
1828
2608
3029
2813
2247
1607
1141
1055
1510
2279
2881
2873
2389
1757
1232
1008
1279
2006
2742
2967
2613
1999
1387
1021
1092
1703
2487
2935
2752
2199
1578
1126
1051
1523
2348
3038
3114
2682
2105
1630
1453
1755
2485
3246
3475
3025
2345
1655
1185
1152
1664
2366
2751
2516
1938
1302
854
783
1248
2075
2750
2800
2354
1724
1186
944
1195
1906
2658
2915
2587
1983
1381
1006
1055
1648
2431
2913
2751
2207
1573
1097
974
1395
2179
2821
2866
2417
1779
1230
970
1201
1908
2655
2931
2611
2004
1411
1018
1069
1646
2443
2928
2771
2227
1602
1133
998
1411
2198
2843
2902
2439
1809
1255
995
1230
1936
2699
2994
2678
2081
1471
1088
1113
1703
2479
2989
2842
2303
1674
1200
1072
1478
2246
2919
3002
2553
1933
1377
1118
1333
2036
2773
3083
2768
2172
1569
1178
1200
1776
2578
3107
2969
2435
1807
1326
1195
1595
2352
3026
3126
2684
2043
1472
1182
1377
2073
2843
3178
2871
2266
1658
1262
1254
1799
2589
3123
2995
2454
1808
1303
1138
1505
2254
2911
2992
2539
1888
1307
993
1159
1829
2593
2911
2625
2021
1389
973
947
1471
2255
2773
2668
2140
1493
989
827
1197
1966
2655
2781
2373
1739
1152
838
989
1661
2428
2765
2480
1885
1264
851
837
1365
2161
2706
2619
2104
1457
960
794
1147
1923
2621
2756
2347
1711
1124
815
959
1622
2398
2757
2497
1930
1318
899
882
1416
2222
2770
2690
2176
1535
1042
866
1204
1955
2665
2814
2414
1791
1212
896
1040
1698
2475
2851
2601
2012
1387
963
937
1451
2256
2831
2778
2278
1627
1102
903
1225
1968
2682
2849
2448
1810
1227
912
1056
1711
2485
2876
2635
2064
1438
1011
967
1469
2258
2843
2801
2302
1666
1145
946
1263
2014
2746
2933
2543
1917
1327
987
1113
1743
2519
2933
2707
2141
1516
1081
1013
1500
2289
2895
2869
2379
1751
1229
1008
1307
2043
2772
2970
2595
1977
1392
1063
1163
1792
2559
2985
2758
2176
1535
1104
1032
1501
2292
2896
2879
2384
1739
1200
967
1235
1961
2679
2896
2512
1883
1280
934
1038
1664
2451
2887
2688
2121
1486
1037
942
1403
2181
2787
2796
2337
1707
1168
951
1231
1964
2723
2994
2694
2146
1616
1319
1456
2123
2963
3494
3281
2673
1985
1456
1283
1648
2335
2868
2779
2221
1515
954
726
1003
1769
2546
2826
2512
1920
1334
979
1055
1678
2471
2919
2736
2183
1563
1110
1022
1471
2250
2877
2896
2432
1800
1263
1012
1264
1978
2729
2983
2640
2027
1424
1063
1118
1719
2512
3007
2831
2272
1642
1171
1057
1476
2262
2928
2975
2522
1888
1335
1077
1297
2001
2754
3029
2703
2099
1494
1131
1186
1779
2559
3059
2896
2343
1713
1244
1136
1561
2345
3008
3071
2613
1981
1431
1174
1399
2111
2873
3161
2819
2212
1612
1236
1280
1861
2651
3159
3017
2480
1844
1362
1229
1634
2410
3088
3154
2693
2059
1491
1216
1430
2141
2913
3238
2913
2307
1707
1317
1346
1931
2734
3264
3120
2553
1910
1431
1297
1695
2459
3150
3234
2774
2133
1563
1270
1441
2141
2896
3199
2865
2242
1610
1195
1191
1741
2523
3045
2901
2349
1698
1187
1031
1409
2175
2846
2941
2499
1865
1294
992
1169
1856
2634
2960
2667
2070
1450
1043
1049
1599
2389
2935
2844
2320
1683
1178
1008
1374
2146
2829
2933
2507
1875
1307
1015
1195
1891
2667
3008
2707
2103
1461
1023
1007
1535
2352
2905
2815
2306
1671
1168
997
1356
2125
2795
2932
2512
1880
1307
1008
1177
1847
2621
2971
2706
2135
1499
1085
1053
1578
2370
2939
2857
2342
1702
1181
986
1335
2102
2803
2943
2531
1918
1340
1033
1179
1845
2618
2990
2727
2143
1506
1084
1045
1557
2347
2910
2843
2335
1712
1196
1005
1328
2071
2774
2939
2544
1914
1327
985
1115
1773
2551
2945
2706
2139
1520
1107
1072
1571
2350
2927
2869
2363
1729
1218
1023
1334
2093
2810
2991
2594
1969
1382
1065
1190
1831
2605
2986
2752
2186
1570
1147
1103
1595
2368
2951
2896
2398
1773
1259
1066
1379
2130
2848
3041
2661
2055
1461
1136
1253
1884
2659
3060
2830
2247
1631
1191
1131
1616
2401
2999
2964
2463
1822
1278
1051
1326
2047
2768
2966
2587
1971
1389
1051
1148
1769
2549
2984
2768
2205
1582
1136
1057
1520
2307
2919
2914
2431
1791
1265
1045
1315
2042
2786
3039
2731
2178
1654
1363
1501
2166
3012
3556
3351
2747
2074
1561
1405
1781
2477
3008
2917
2355
1647
1047
774
1018
1766
2511
2789
2480
1915
1343
1001
1089
1712
2497
2955
2767
2213
1578
1110
1008
1452
2228
2853
2877
2406
1783
1254
1011
1267
1979
2721
2971
2633
2020
1415
1046
1104
1705
2501
2979
2811
2256
1623
1151
1041
1481
2267
2907
2940
2474
1844
1306
1060
1295
1996
2736
3005
2660
2063
1465
1094
1139
1735
2532
3031
2870
2319
1679
1203
1082
1497
2283
2928
2967
2510
1874
1328
1075
1299
2010
2769
3059
2747
2149
1535
1168
1200
1774
2559
3071
2921
2368
1728
1249
1121
1527
2304
2983
3067
2627
2009
1465
1203
1407
2114
2871
3168
2839
2236
1636
1257
1288
1863
2661
3182
3025
2474
1841
1357
1216
1606
2366
3027
3118
2673
2043
1474
1185
1382
2071
2827
3134
2800
2189
1559
1145
1136
1680
2461
2969
2823
2279
1638
1136
961
1328
2066
2713
2806
2382
1762
1189
903
1088
1771
2530
2847
2531
1937
1330
939
942
1500
2299
2826
2711
2187
1535
1046
887
1250
2017
2710
2817
2400
1779
1214
916
1094
1779
2545
2892
2608
2019
1401
999
1002
1535
2333
2858
2759
2256
1621
1119
956
1312
2067
2751
2877
2461
1842
1283
993
1157
1813
2581
2933
2663
2081
1458
1056
1041
1580
2367
2922
2834
2320
1687
1177
1007
1351
2101
2801
2944
2538
1913
1344
1038
1159
1825
2601
2969
2711
2132
1513
1105
1075
1597
2371
2939
2870
2359
1728
1219
1034
1360
2112
2816
2975
2581
1962
1380
1062
1200
1847
2624
3004
2750
2167
1535
1129
1094
1600
2390
2966
2912
2401
1765
1247
1062
1383
2130
2834
3007
2615
1988
1419
1107
1232
1867
2643
3056
2827
2256
1634
1206
1164
1663
2449
3053
3013
2507
1867
1343
1135
1424
2163
2889
3083
2691
2075
1488
1155
1264
1874
2663
3061
2825
2251
1615
1153
1083
1553
2325
2914
2879
2384
1755
1231
1009
1317
2046
2779
2995
2611
1979
1378
1042
1141
1773
2551
2974
2762
2195
1574
1117
1039
1515
2325
2983
3023
2591
2006
1535
1383
1712
2481
3265
3505
3056
2363
1690
1250
1263
1811
2522
2880
2593
1966
1287
832
769
1264
2091
2739
2773
2322
1715
1199
973
1234
1971
2703
2931
2590
1979
1386
1035
1109
1717
2505
2951
2752
2190
1559
1104
1015
1474
2252
2864
2874
2400
1776
1238
1002
1261
1977
2718
2965
2623
2018
1422
1068
1127
1735
2515
2987
2801
2242
1610
1150
1045
1464
2256
2896
2929
2465
1837
1297
1063
1301
2011
2750
3011
2673
2075
1471
1106
1167
1758
2544
3008
2843
2304
1674
1207
1093
1508
2283
2929
2978
2517
1893
1350
1103
1337
2045
2791
3087
2752
2148
1553
1184
1231
1809
2605
3120
2975
2416
1781
1299
1171
1600
2377
3047
3123
2672
2038
1482
1213
1409
2129
2887
3194
2859
2247
1638
1259
1291
1865
2659
3174
3019
2465
1825
1338
1187
1566
2320
2978
3046
2589
1936
1360
1072
1269
1959
2699
2979
2655
2038
1407
998
1008
1558
2337
2836
2711
2192
1535
1063
915
1296
2064
2738
2815
2384
1744
1180
896
1101
1789
2551
2871
2559
1968
1345
947
955
1511
2310
2837
2727
2207
1559
1083
929
1312
2069
2747
2850
2426
1801
1230
933
1113
1803
2559
2914
2628
2028
1393
985
997
1535
2334
2867
2760
2250
1615
1106
929
1291
2058
2743
2867
2457
1829
1247
943
1104
1778
2545
2893
2615
2021
1403
998
986
1521
2319
2867
2779
2266
1637
1135
959
1313
2068
2755
2891
2480
1850
1279
967
1119
1777
2537
2896
2624
2031
1407
995
976
1509
2315
2878
2799
2279
1630
1114
932
1271
2027
2733
2869
2453
1825
1247
943
1088
1751
2528
2903
2651
2067
1439
1008
970
1476
2275
2855
2798
2291
1654
1139
946
1269
2015
2723
2885
2492
1879
1289
961
1090
1745
2527
2918
2672
2093
1456
1023
979
1482
2279
2864
2819
2317
1679
1136
933
1263
2000
2719
2889
2498
1883
1303
976
1095
1726
2497
2903
2688
2129
1525
1091
1045
1552
2339
2932
2895
2390
1756
1222
1009
1309
2041
2757
2945
2559
1946
1351
1008
1123
1763
2529
2947
2734
2162
1527
1073
983
1439
2217
2815
2800
2313
1680
1151
933
1225
1968
2703
2909
2533
1917
1331
990
1087
1714
2498
2927
2705
2153
1522
1089
1018
1501
2320
2984
3035
2609
2032
1558
1381
1712
2466
3225
3438
2979
2295
1630
1200
1205
1750
2462
2818
2547
1937
1281
841
786
1272
2094
2736
2768
2320
1691
1164
934
1201
1927
2665
2896
2547
1946
1359
1007
1089
1699
2487
2941
2751
2191
1535
1078
966
1411
2193
2839
2867
2401
1769
1230
978
1246
1971
2715
2970
2634
2018
1419
1047
1101
1694
2481
2955
2788
2242
1616
1166
1067
1499
2281
2922
2947
2477
1843
1293
1051
1295
2015
2778
3043
2704
2108
1510
1154
1200
1777
2553
3031
2871
2322
1707
1242
1136
1553
2321
2970
3032
2559
1933
1375
1119
1363
2061
2811
3103
2768
2170
1566
1193
1247
1835
2622
3125
2966
2419
1782
1303
1186
1610
2384
3056
3123
2667
2032
1485
1216
1433
2129
2885
3200
2879
2279
1663
1271
1296
1867
2655
3173
3024
2466
1826
1331
1189
1579
2335
3002
3071
2615
1971
1386
1086
1273
1935
2699
2993
2674
2065
1438
1053
1058
1605
2384
2892
2766
2246
1611
1115
959
1331
2096
2759
2853
2415
1781
1218
938
1130
1814
2559
2899
2608
2000
1392
998
1008
1570
2355
2874
2757
2234
1600
1108
945
1317
2093
2790
2905
2477
1844
1270
973
1152
1839
2606
2945
2655
2061
1431
1036
1038
1584
2372
2915
2820
2291
1651
1154
979
1342
2101
2785
2918
2511
1889
1315
1008
1169
1839
2610
2969
2702
2102
1473
1055
1034
1575
2375
2939
2852
2323
1685
1179
1003
1351
2110
2801
2942
2530
1909
1330
1015
1170
1841
2627
2995
2738
2148
1520
1105
1093
1614
2400
2961
2879
2355
1706
1201
1013
1355
2109
2801
2955
2544
1938
1377
1070
1214
1872
2654
3031
2765
2175
1552
1119
1074
1580
2368
2950
2896
2385
1751
1237
1046
1366
2112
2822
3008
2624
1991
1397
1060
1169
1808
2589
2978
2738
2161
1520
1104
1072
1575
2366
2946
2903
2398
1766
1247
1041
1353
2084
2790
2955
2559
1942
1351
1021
1161
1808
2581
2992
2751
2176
1552
1117
1067
1567
2352
2958
2935
2449
1815
1291
1088
1397
2136
2869
3071
2690
2053
1447
1099
1191
1819
2613
3033
2815
2242
1616
1157
1088
1558
2331
2928
2892
2395
1744
1197
965
1249
1979
2709
2939
2576
1956
1363
1018
1113
1743
2517
2959
2755
2188
1559
1106
1035
1490
2271
2879
2883
2413
1788
1286
1104
1439
2235
3035
3343
3030
2462
1920
1584
1639
2191
2909
3295
3010
2350
1629
1088
909
1280
2000
2593
2602
2149
1535
1052
849
1139
1886
2647
2898
2553
1947
1349
993
1071
1680
2471
2925
2734
2176
1524
1084
978
1422
2209
2842
2861
2389
1762
1219
976
1216
1933
2681
2941
2608
1993
1392
1034
1110
1727
2509
2971
2791
2226
1585
1115
1005
1439
2225
2864
2901
2437
1812
1275
1019
1253
1958
2704
2963
2624
2018
1423
1065
1119
1700
2495
2979
2816
2262
1637
1165
1043
1460
2240
2884
2939
2479
1840
1286
1023
1249
1953
2713
3005
2686
2086
1475
1095
1141
1723
2515
3019
2866
2322
1700
1230
1120
1527
2304
2965
3043
2594
1968
1406
1136
1342
2031
2799
3104
2779
2176
1562
1171
1204
1777
2581
3103
2951
2402
1759
1263
1131
1522
2291
2959
3029
2559
1932
1363
1079
1266
1936
2682
2982
2662
2064
1420
1008
1008
1557
2337
2843
2710
2176
1527
1037
873
1243
2003
2679
2766
2326
1699
1134
841
1022
1712
2481
2818
2526
1927
1311
898
901
1454
2267
2817
2682
2174
1519
1009
857
1232
2002
2697
2805
2377
1750
1185
900
1079
1759
2529
2864
2587
1989
1360
943
927
1470
2269
2816
2726
2219
1571
1078
913
1281
2043
2735
2849
2427
1799
1225
913
1088
1759
2531
2887
2619
2039
1424
1008
976
1509
2304
2871
2795
2285
1638
1149
976
1301
2081
2781
2928
2512
1889
1297
976
1134
1793
2559
2945
2685
2098
1470
1057
1023
1535
2346
2913
2832
2320
1682
1181
991
1325
2077
2769
2922
2514
1889
1310
994
1141
1808
2583
2961
2713
2138
1513
1093
1055
1570
2366
2941
2882
2378
1733
1212
1011
1335
2086
2786
2943
2543
1911
1328
998
1135
1795
2589
2992
2743
2162
1528
1095
1049
1554
2347
2930
2882
2373
1731
1206
1005
1311
2059
2771
2960
2559
1939
1349
1016
1141
1791
2579
3001
2779
2213
1588
1139
1074
1574
2374
2993
2971
2465
1822
1286
1071
1363
2112
2830
3017
2624
2000
1408
1071
1181
1842
2638
3056
2823
2240
1599
1138
1051
1507
2289
2893
2869
2378
1738
1198
970
1253
1987
2733
2960
2587
1968
1369
1017
1109
1732
2513
2953
2752
2189
1555
1102
1015
1483
2274
2889
2878
2392
1763
1267
1099
1441
2247
3055
3367
3029
2448
1886
1531
1586
2138
2849
3226
2933
2288
1571
1013
833
1216
1969
2599
2631
2191
1589
1089
880
1164
1911
2674
2937
2593
1982
1376
1013
1087
1693
2490
2965
2785
2226
1585
1111
1005
1441
2227
2869
2898
2432
1795
1250
996
1245
1962
2709
2960
2607
1988
1392
1016
1081
1680
2480
2966
2805
2247
1605
1118
990
1418
2191
2857
2896
2434
1808
1258
999
1236
1955
2705
2992
2662
2047
1432
1065
1108
1701
2500
2993
2832
2287
1649
1168
1041
1469
2271
2941
2995
2534
1898
1338
1075
1301
2018
2783
3071
2748
2143
1535
1168
1209
1771
2559
3082
2943
2390
1747
1277
1147
1535
2352
3030
3120
2666
2030
1472
1200
1398
2094
2855
3178
2854
2255
1643
1245
1266
1844
2638
3165
3011
2464
1829
1339
1201
1594
2365
3027
3119
2656
2007
1429
1138
1315
1990
2746
3056
2751
2139
1502
1091
1083
1626
2399
2912
2789
2247
1602
1099
940
1311
2070
2740
2837
2411
1780
1206
913
1099
1785
2549
2877
2591
1995
1375
971
967
1514
2306
2835
2721
2183
1535
1045
889
1266
2043
2739
2863
2432
1797
1226
925
1094
1785
2535
2881
2606
2016
1401
985
976
1518
2318
2864
2771
2247
1599
1084
907
1264
2035
2746
2870
2449
1823
1246
937
1098
1774
2553
2911
2639
2035
1399
977
960
1500
2295
2847
2767
2242
1597
1072
894
1253
2016
2719
2854
2434
1799
1214
897
1057
1748
2529
2897
2631
2033
1392
960
930
1454
2249
2820
2754
2252
1606
1088
896
1235
1987
2700
2855
2453
1824
1241
921
1061
1723
2512
2894
2644
2063
1424
992
945
1431
2256
2835
2785
2285
1647
1125
922
1242
1989
2716
2886
2496
1872
1282
957
1083
1728
2519
2915
2681
2110
1477
1040
972
1467
2256
2850
2802
2309
1664
1141
931
1253
2000
2739
2931
2549
1931
1343
997
1096
1727
2517
2944
2717
2144
1518
1085
1008
1493
2291
2893
2862
2359
1712
1184
965
1267
2011
2752
2963
2603
1987
1404
1067
1177
1818
2622
3055
2832
2255
1622
1167
1087
1561
2351
2971
2959
2467
1826
1287
1067
1347
2087
2827
3033
2651
2018
1413
1057
1131
1744
2527
2960
2752
2179
1535
1088
1002
1472
2266
2896
2898
2407
1760
1221
987
1266
1999
2739
2979
2626
2001
1395
1046
1145
1795
2640
3164
3029
2513
1933
1519
1464
1936
2715
3335
3280
2704
1993
1367
1043
1207
1872
2544
2738
2362
1741
1155
825
927
1584
2409
2905
2752
2205
1581
1109
1008
1463
2247
2894
2926
2447
1802
1263
1011
1270
1993
2749
3008
2666
2058
1434
1070
1130
1725
2529
2997
2809
2253
1616
1153
1053
1481
2270
2919
2961
2500
1863
1311
1051
1291
2005
2746
3014
2679
2077
1470
1103
1153
1749
2535
3023
2859
2309
1679
1210
1089
1501
2282
2945
3003
2539
1904
1342
1075
1294
1998
2759
3053
2734
2128
1508
1136
1187
1777
2582
3095
2928
2378
1734
1255
1126
1535
2315
2992
3070
2619
1979
1416
1139
1351
2064
2835
3159
2837
2241
1648
1263
1281
1841
2630
3152
3017
2480
1846
1362
1228
1622
2380
3051
3136
2691
2071
1517
1243
1443
2127
2880
3201
2880
2267
1649
1245
1249
1802
2582
3105
2966
2415
1760
1253
1087
1455
2209
2880
2967
2512
1865
1289
987
1167
1850
2617
2942
2649
2047
1412
1005
1008
1557
2348
2873
2758
2231
1600
1099
944
1315
2091
2775
2892
2467
1842
1271
977
1155
1840
2624
2965
2682
2092
1462
1045
1023
1567
2353
2894
2815
2291
1653
1155
989
1343
2123
2814
2943
2522
1887
1312
1013
1179
1849
2631
2991
2720
2128
1506
1094
1074
1607
2395
2954
2871
2351
1713
1205
1019
1360
2124
2834
2990
2594
1959
1371
1064
1202
1857
2639
3010
2753
2169
1535
1133
1095
1613
2398
2962
2887
2375
1742
1227
1042
1367
2112
2827
2986
2578
1952
1371
1060
1201
1860
2624
3006
2758
2178
1559
1131
1089
1601
2393
2981
2927
2417
1778
1259
1062
1385
2138
2851
3023
2621
1979
1392
1073
1202
1853
2635
3027
2786
2210
1583
1136
1085
1584
2371
2959
2919
2414
1767
1239
1031
1338
2093
2815
2995
2607
1968
1380
1051
1166
1807
2591
2993
2759
2180
1557
1119
1073
1559
2337
2932
2897
2409
1771
1232
1008
1302
2046
2771
2963
2581
1965
1371
1035
1141
1776
2559
2986
2768
2207
1595
1158
1093
1571
2352
2960
2946
2454
1825
1272
1047
1329
2064
2790
3007
2646
2033
1441
1091
1175
1791
2559
2995
2779
2199
1566
1093
995
1452
2243
2862
2870
2395
1744
1206
971
1244
1975
2715
2946
2592
1970
1370
1015
1094
1719
2503
2955
2768
2217
1597
1146
1071
1533
2350
3029
3111
2677
2098
1603
1413
1729
2480
3250
3487
3053
2359
1680
1232
1215
1739
2445
2832
2598
2007
1355
882
797
1270
2106
2776
2835
2389
1773
1232
984
1232
1957
2703
2967
2633
2032
1435
1076
1133
1732
2527
3006
2843
2285
1646
1162
1050
1465
2241
2887
2928
2474
1849
1302
1061
1305
2009
2754
3023
2693
2091
1488
1110
1136
1722
2511
2999
2847
2315
1686
1216
1098
1504
2283
2948
2997
2553
1919
1345
1082
1299
2005
2768
3062
2736
2129
1523
1151
1184
1765
2544
3041
2894
2346
1717
1235
1101
1495
2269
2927
3003
2545
1925
1378
1111
1323
2007
2775
3083
2764
2175
1590
1207
1232
1803
2599
3119
2966
2442
1819
1333
1196
1584
2348
3026
3130
2686
2063
1498
1222
1422
2126
2893
3216
2898
2295
1685
1283
1293
1844
2631
3165
3035
2491
1852
1349
1197
1578
2314
2985
3071
2622
1969
1385
1087
1265
1939
2695
3022
2719
2115
1474
1062
1049
1584
2378
2903
2788
2256
1614
1119
951
1314
2082
2758
2866
2447
1818
1247
952
1132
1811
2559
2897
2613
2018
1406
997
980
1520
2325
2880
2783
2263
1626
1126
963
1328
2086
2768
2887
2471
1842
1269
969
1136
1813
2587
2931
2651
2053
1424
1008
994
1530
2323
2882
2807
2289
1650
1134
940
1277
2023
2735
2883
2477
1843
1257
943
1093
1747
2555
2935
2677
2093
1453
1018
983
1503
2303
2875
2807
2303
1663
1147
954
1281
2039
2759
2928
2531
1922
1341
1008
1142
1791
2559
2958
2711
2129
1493
1063
1013
1522
2315
2890
2823
2317
1680
1168
967
1290
2038
2762
2931
2527
1904
1305
969
1092
1749
2538
2939
2696
2119
1488
1054
990
1494
2287
2882
2848
2343
1703
1177
966
1274
2015
2736
2926
2542
1919
1329
991
1115
1756
2533
2944
2706
2135
1497
1052
982
1474
2279
2881
2850
2352
1713
1185
974
1278
2019
2753
2957
2559
1936
1339
989
1090
1729
2523
2960
2739
2165
1530
1088
1008
1485
2288
2918
2901
2415
1751
1232
1023
1324
2073
2819
3034
2652
2033
1431
1092
1181
1800
2587
3027
2817
2249
1616
1168
1088
1553
2334
2955
2945
2451
1795
1252
1014
1287
2027
2768
2983
2602
1968
1361
1007
1093
1723
2512
2954
2754
2193
1567
1099
999
1456
2249
2878
2889
2410
1771
1232
996
1266
2004
2774
3056
2753
2207
1675
1370
1491
2148
2995
3542
3333
2701
2005
1463
1278
1637
2343
2899
2825
2263
1535
957
706
965
1735
2529
2833
2523
1933
1347
990
1063
1664
2438
2919
2746
2197
1559
1088
971
1403
2185
2830
2867
2407
1772
1221
962
1203
1923
2690
2967
2640
2034
1424
1042
1087
1679
2480
2971
2813
2265
1617
1138
999
1412
2197
2859
2919
2467
1837
1280
1013
1223
1922
2678
2961
2640
2033
1430
1058
1105
1680
2480
2983
2839
2303
1677
1168
1038
1450
2218
2889
2960
2496
1857
1294
1023
1243
1942
2709
3001
2685
2090
1479
1108
1141
1721
2517
3043
2910
2368
1731
1241
1109
1518
2299
2978
3063
2615
1982
1418
1135
1335
2035
2817
3161
2850
2251
1646
1239
1249
1813
2623
3170
3037
2482
1840
1345
1187
1582
2352
3046
3158
2710
2071
1497
1200
1366
2035
2800
3139
2826
2210
1581
1153
1136
1673
2451
2976
2859
2311
1653
1135
957
1326
2094
2768
2870
2447
1809
1227
923
1102
1775
2543
2885
2598
1998
1369
959
958
1499
2302
2849
2751
2226
1591
1098
935
1295
2054
2744
2864
2443
1813
1232
931
1099
1775
2545
2909
2642
2065
1424
1005
981
1520
2319
2874
2787
2276
1625
1121
944
1296
2058
2759
2908
2495
1872
1291
973
1129
1786
2555
2923
2647
2065
1441
1023
995
1509
2298
2864
2800
2291
1662
1159
978
1331
2103
2802
2947
2535
1905
1317
993
1137
1803
2582
2954
2697
2112
1478
1051
1007
1519
2320
2901
2864
2367
1737
1217
1009
1323
2061
2752
2928
2529
1917
1343
1022
1151
1797
2586
2987
2736
2163
1528
1089
1035
1521
2325
2911
2864
2366
1721
1195
985
1302
2047
2759
2950
2559
1951
1346
1002
1109
1757
2541
2953
2721
2155
1532
1104
1047
1520
2310
2897
2863
2353
1717
1197
987
1286
2021
2741
2942
2559
1947
1354
1001
1100
1729
2503
2930
2718
2159
1526
1088
1022
1493
2287
2894
2879
2387
1744
1203
977
1262
1991
2730
2943
2588
1979
1388
1046
1135
1759
2557
3009
2807
2239
1616
1159
1078
1531
2304
2916
2913
2432
1795
1254
1022
1297
2023
2761
2978
2613
1983
1377
1009
1091
1702
2481
2923
2725
2160
1520
1077
991
1451
2229
2854
2864
2385
1740
1194
949
1210
1923
2665
2896
2541
1926
1331
976
1058
1676
2475
2946
2800
2289
1721
1330
1294
1799
2615
3321
3385
2866
2179
1565
1229
1390
2030
2698
2865
2431
1743
1073
688
747
1389
2209
2711
2559
2062
1447
998
907
1352
2160
2817
2850
2386
1749
1200
938
1170
1885
2637
2905
2559
1966
1361
989
1035
1611
2405
2896
2743
2198
1574
1103
976
1395
2175
2823
2877
2419
1781
1229
967
1198
1905
2671
2957
2628
2029
1415
1040
1075
1663
2453
2950
2800
2265
1633
1148
1009
1413
2192
2864
2942
2497
1865
1301
1040
1253
1950
2709
3008
2693
2095
1477
1087
1104
1679
2476
2994
2867
2343
1706
1231
1088
1475
2247
2909
2987
2544
1917
1357
1086
1295
1999
2770
3106
2800
2205
1611
1216
1227
1777
2559
3113
2995
2460
1830
1342
1198
1584
2336
3020
3121
2676
2037
1482
1195
1377
2064
2827
3172
2873
2282
1671
1264
1258
1801
2582
3111
2991
2450
1806
1290
1111
1463
2213
2881
2987
2544
1891
1293
979
1150
1821
2586
2928
2639
2032
1403
981
962
1492
2288
2831
2737
2219
1582
1073
896
1249
2001
2691
2816
2401
1773
1204
900
1071
1743
2507
2863
2585
1993
1375
961
951
1476
2265
2815
2736
2221
1581
1078
907
1248
1994
2688
2822
2415
1788
1215
897
1045
1712
2483
2855
2601
2027
1404
976
945
1462
2258
2816
2734
2224
1587
1083
896
1235
1983
2690
2850
2454
1836
1250
934
1077
1727
2502
2871
2631
2053
1425
1004
974
1486
2270
2847
2786
2286
1648
1121
927
1255
2007
2719
2881
2482
1859
1283
958
1093
1744
2522
2918
2687
2115
1488
1059
997
1487
2278
2866
2816
2319
1681
1172
975
1294
2047
2759
2917
2496
1861
1264
935
1067
1731
2528
2946
2722
2160
1533
1098
1037
1518
2303
2898
2874
2383
1753
1236
1039
1329
2063
2773
2985
2611
2000
1411
1072
1179
1806
2589
2997
2779
2212
1584
1138
1072
1535
2330
2931
2907
2410
1776
1253
1050
1354
2086
2806
3015
2641
2022
1431
1088
1185
1812
2611
3055
2851
2286
1665
1215
1131
1585
2383
2994
2989
2497
1867
1335
1110
1383
2112
2833
3057
2700
2086
1475
1120
1191
1808
2559
3033
2839
2285
1636
1168
1071
1508
2295
2938
2944
2463
1827
1286
1045
1297
2010
2750
2993
2661
2047
1447
1088
1153
1766
2559
3015
2832
2291
1702
1307
1293
1804
2640
3355
3425
2939
2294
1730
1423
1600
2236
2899
3071
2640
1952
1269
836
848
1438
2256
2751
2618
2110
1500
1067
974
1427
2224
2877
2913
2449
1820
1268
1023
1271
1981
2736
3013
2687
2087
1471
1095
1146
1738
2519
3008
2834
2279
1647
1168
1051
1467
2235
2882
2929
2480
1861
1313
1055
1284
1974
2723
3005
2683
2079
1469
1093
1127
1712
2510
3024
2875
2322
1694
1207
1073
1469
2239
2891
2957
2501
1871
1309
1050
1258
1959
2719
3026
2707
2109
1490
1105
1130
1697
2480
2992
2854
2320
1692
1214
1078
1470
2249
2913
2997
2558
1935
1383
1114
1316
2006
2775
3095
2784
2183
1575
1183
1200
1775
2559
3118
2985
2451
1820
1331
1182
1574
2341
3034
3136
2688
2053
1476
1190
1376
2064
2818
3159
2855
2258
1654
1256
1255
1808
2608
3139
3008
2451
1797
1286
1114
1465
2215
2885
2978
2536
1895
1306
992
1154
1830
2585
2915
2611
2001
1366
960
951
1487
2278
2807
2701
2182
1535
1040
864
1227
1986
2677
2787
2366
1738
1173
880
1051
1725
2496
2851
2559
1982
1360
955
941
1476
2265
2803
2711
2193
1557
1055
885
1253
2002
2699
2820
2405
1778
1201
896
1052
1721
2502
2880
2620
2027
1396
974
935
1453
2235
2796
2711
2198
1557
1054
868
1218
1978
2679
2818
2413
1787
1213
898
1050
1706
2477
2847
2591
2006
1385
958
924
1438
2229
2795
2731
2230
1595
1073
882
1216
1968
2674
2827
2427
1798
1214
899
1058
1700
2477
2851
2610
2027
1392
959
912
1419
2215
2791
2739
2247
1603
1079
873
1193
1937
2654
2826
2442
1818
1232
906
1023
1680
2457
2857
2627
2054
1414
976
922
1422
2213
2801
2768
2274
1648
1133
923
1221
1963
2688
2874
2492
1872
1280
944
1055
1683
2464
2880
2666
2107
1479
1040
974
1456
2246
2844
2816
2330
1699
1171
953
1234
1965
2679
2883
2515
1905
1321
975
1086
1731
2527
2967
2768
2207
1578
1119
1039
1503
2288
2903
2893
2417
1781
1251
1023
1306
2033
2763
2988
2624
1999
1393
1030
1106
1723
2507
2944
2735
2178
1535
1088
995
1444
2224
2831
2832
2365
1733
1200
959
1217
1951
2695
2932
2581
1967
1367
1021
1103
1707
2492
2960
2799
2281
1712
1319
1289
1797
2640
3365
3447
2944
2265
1665
1346
1523
2175
2838
3001
2559
1885
1229
822
871
1475
2284
2768
2627
2114
1511
1077
987
1438
2226
2865
2896
2432
1801
1264
1009
1246
1955
2693
2978
2631
2018
1411
1046
1104
1693
2485
2969
2807
2262
1627
1157
1047
1479
2256
2898
2945
2482
1858
1314
1061
1284
1984
2735
3009
2677
2071
1456
1078
1141
1722
2512
3008
2852
2311
1669
1193
1069
1485
2243
2893
2957
2501
1871
1319
1063
1287
1989
2755
3056
2726
2127
1506
1131
1170
1754
2549
3051
2909
2365
1729
1253
1121
1521
2299
2963
3050
2608
1968
1420
1155
1367
2075
2838
3154
2834
2229
1626
1238
1263
1835
2625
3150
3015
2471
1840
1354
1213
1605
2368
3055
3151
2703
2070
1494
1210
1403
2083
2839
3169
2859
2255
1642
1250
1237
1793
2559
3106
2972
2423
1771
1260
1101
1463
2218
2881
2963
2514
1878
1296
990
1163
1831
2582
2885
2587
1991
1373
967
966
1515
2306
2830
2723
2193
1555
1063
906
1277
2043
2723
2826
2397
1763
1200
907
1086
1762
2523
2867
2594
2005
1389
969
958
1489
2288
2833
2739
2221
1581
1077
913
1289
2053
2737
2859
2437
1810
1234
940
1105
1782
2551
2903
2635
2053
1440
1033
1007
1535
2326
2887
2814
2303
1658
1153
973
1323
2079
2766
2917
2502
1887
1315
1005
1152
1817
2594
2959
2701
2111
1481
1055
1023
1535
2331
2902
2846
2341
1707
1189
995
1322
2071
2769
2927
2526
1907
1339
1019
1154
1808
2589
2969
2722
2142
1499
1073
1034
1535
2317
2889
2830
2333
1698
1189
998
1319
2064
2775
2946
2555
1941
1359
1018
1129
1765
2539
2929
2702
2126
1498
1073
1039
1526
2318
2910
2859
2352
1712
1200
997
1309
2043
2758
2947
2559
1937
1351
1021
1154
1791
2559
2977
2739
2165
1535
1101
1044
1527
2319
2903
2870
2386
1759
1238
1035
1327
2057
2774
2971
2597
1984
1402
1067
1168
1799
2593
3021
2803
2238
1616
1175
1106
1585
2345
2944
2934
2443
1802
1277
1062
1347
2083
2799
2998
2620
2001
1395
1040
1115
1717
2496
2921
2717
2145
1509
1064
976
1431
2209
2816
2807
2330
1686
1151
915
1203
1930
2666
2887
2522
1907
1310
958
1042
1665
2453
2916
2722
2158
1534
1104
1056
1555
2388
3071
3148
2710
2135
1650
1455
1725
2413
3114
3287
2833
2143
1460
1022
1008
1532
2254
2651
2437
1872
1250
819
758
1235
2043
2697
2734
2275
1643
1105
870
1135
1857
2600
2847
2511
1904
1305
943
1003
1615
2411
2869
2683
2126
1479
1012
912
1354
2140
2782
2817
2368
1734
1187
939
1185
1901
2651
2914
2579
1955
1360
976
1023
1637
2442
2929
2757
2209
1579
1101
976
1408
2181
2840
2894
2439
1793
1243
973
1191
1904
2662
2944
2623
2013
1408
1040
1085
1666
2464
2960
2821
2285
1643
1166
1039
1451
2235
2899
2976
2529
1902
1346
1077
1286
1979
2737
3039
2722
2126
1523
1157
1193
1776
2587
3110
2966
2417
1776
1295
1157
1559
2324
3002
3088
2640
2002
1442
1173
1379
2069
2832
3152
2833
2229
1613
1214
1232
1802
2603
3131
2986
2435
1794
1297
1137
1507
2263
2928
3009
2557
1902
1310
1011
1189
1871
2615
2927
2611
2000
1378
972
977
1526
2321
2850
2741
2222
1575
1070
900
1273
2039
2723
2829
2404
1783
1216
916
1088
1765
2526
2864
2578
1998
1391
983
975
1519
2321
2870
2767
2242
1594
1088
927
1296
2059
2752
2874
2455
1834
1265
967
1139
1813
2579
2926
2647
2059
1441
1037
1015
1535
2343
2895
2800
2267
1622
1120
955
1314
2074
2763
2896
2490
1858
1285
976
1131
1797
2578
2922
2646
2056
1438
1038
1010
1535
2336
2896
2821
2311
1670
1154
977
1319
2073
2768
2913
2506
1879
1300
991
1140
1808
2599
2979
2722
2135
1504
1084
1044
1563
2359
2928
2863
2346
1699
1180
991
1319
2075
2784
2939
2533
1904
1323
1011
1154
1812
2595
2990
2739
2160
1526
1102
1052
1535
2332
2916
2863
2352
1705
1189
985
1302
2047
2768
2943
2553
1936
1349
1023
1157
1808
2599
3007
2767
2181
1553
1104
1044
1535
2323
2919
2881
2383
1739
1215
1010
1326
2080
2797
2982
2603
1973
1381
1053
1168
1822
2606
3011
2777
2203
1579
1136
1078
1572
2373
2989
2961
2473
1826
1276
1073
1355
2112
2838
3051
2677
2062
1472
1125
1221
1863
2637
3056
2819
2240
1607
1149
1069
1552
2333
2934
2909
2406
1755
1217
994
1285
2039
2785
2999
2625
2000
1392
1043
1136
1766
2555
2995
2785
2210
1583
1123
1049
1523
2320
2950
2965
2503
1906
1428
1269
1617
2415
3258
3582
3200
2549
1905
1487
1502
2044
2768
3139
2835
2177
1446
914
782
1218
2023
2688
2736
2303
1676
1152
931
1219
1970
2740
2992
2638
2013
1409
1047
1117
1729
2533
2992
2800
2246
1603
1131
1022
1467
2259
2912
2943
2463
1812
1255
993
1254
1985
2753
3019
2679
2064
1441
1072
1121
1728
2529
3012
2831
2277
1648
1179
1072
1511
2304
2967
3005
2517
1872
1312
1059
1295
2017
2784
3062
2719
2103
1487
1104
1154
1758
2559
3050
2896
2343
1697
1216
1099
1526
2320
2985
3035
2559
1931
1370
1104
1325
2036
2805
3111
2779
2166
1535
1169
1222
1814
2624
3141
2992
2445
1811
1321
1183
1604
2391
3085
3158
2688
2045
1479
1207
1427
2135
2902
3221
2896
2290
1684
1299
1328
1904
2713
3250
3088
2512
1870
1361
1216
1606
2379
3046
3111
2642
1990
1410
1122
1312
2000
2758
3051
2715
2093
1443
1031
1035
1603
2406
2928
2797
2259
1596
1077
911
1283
2055
2736
2821
2385
1744
1184
905
1102
1802
2559
2908
2608
1999
1363
954
955
1520
2325
2859
2751
2217
1571
1071
917
1305
2093
2780
2880
2443
1801
1229
938
1127
1824
2614
2951
2646
2039
1415
1005
990
1534
2337
2875
2773
2249
1601
1091
938
1296
2079
2782
2908
2478
1843
1263
953
1126
1802
2581
2928
2650
2064
1439
1023
1008
1535
2352
2906
2815
2287
1647
1135
957
1327
2113
2814
2946
2528
1899
1312
995
1148
1827
2611
2975
2699
2109
1484
1066
1040
1561
2359
2928
2833
2309
1664
1152
976
1328
2096
2811
2944
2522
1893
1306
987
1135
1802
2583
2958
2700
2110
1475
1045
1002
1520
2326
2917
2860
2349
1701
1177
977
1287
2069
2792
2956
2544
1910
1323
993
1133
1798
2595
2977
2721
2139
1505
1072
1031
1535
2343
2934
2879
2363
1711
1178
970
1293
2054
2790
2972
2559
1942
1343
1007
1142
1807
2597
2997
2763
2181
1535
1092
1039
1535
2346
2951
2912
2414
1776
1255
1051
1360
2113
2837
3027
2639
2023
1415
1083
1191
1836
2617
3023
2786
2205
1574
1131
1067
1535
2322
2922
2883
2377
1727
1184
969
1259
1991
2719
2919
2558
1942
1349
1007
1109
1743
2529
2957
2741
2167
1525
1082
997
1483
2270
2885
2882
2399
1764
1242
1046
1367
2155
2953
3262
2939
2368
1825
1514
1623
2223
2981
3382
3063
2396
1675
1130
950
1331
2055
2627
2608
2129
1493
975
782
1094
1875
2661
2922
2579
1967
1377
1017
1095
1718
2512
2960
2760
2205
1581
1126
1040
1493
2286
2915
2922
2439
1798
1247
1008
1269
1989
2726
2967
2623
2014
1422
1070
1133
1735
2524
2982
2796
2242
1615
1147
1043
1477
2271
2896
2911
2430
1792
1254
1008
1260
1985
2741
3006
2667
2065
1456
1075
1130
1728
2522
3008
2830
2277
1646
1166
1057
1488
2262
2906
2946
2481
1853
1297
1055
1296
2015
2770
3045
2706
2102
1499
1136
1195
1792
2591
3082
2909
2354
1727
1259
1142
1571
2356
3023
3093
2629
1997
1449
1190
1417
2110
2864
3157
2829
2223
1622
1237
1276
1857
2654
3174
3024
2478
1840
1353
1215
1619
2383
3051
3115
2640
1989
1419
1143
1350
2032
2791
3085
2741
2119
1487
1086
1093
1655
2441
2943
2794
2238
1586
1079
932
1329
2103
2766
2830
2384
1749
1180
894
1088
1777
2535
2839
2531
1931
1313
912
928
1495
2301
2816
2687
2160
1521
1034
878
1264
2045
2727
2821
2384
1744
1177
890
1094
1777
2542
2865
2591
2000
1395
1006
1008
1553
2342
2862
2751
2229
1597
1105
951
1326
2095
2768
2863
2438
1809
1242
946
1127
1798
2587
2929
2647
2064
1444
1046
1042
1582
2368
2903
2794
2256
1613
1106
939
1299
2084
2786
2902
2479
1843
1267
958
1127
1808
2589
2938
2658
2062
1431
1017
1006
1552
2355
2909
2819
2288
1648
1138
966
1328
2099
2799
2928
2497
1870
1290
985
1146
1815
2596
2963
2697
2109
1477
1058
1023
1561
2352
2919
2832
2319
1690
1193
1006
1342
2096
2800
2941
2523
1908
1314
999
1139
1808
2587
2966
2704
2123
1495
1072
1041
1557
2351
2939
2869
2355
1710
1197
991
1319
2079
2802
2961
2559
1941
1360
1040
1182
1840
2627
3030
2799
2208
1584
1152
1114
1632
2426
3011
2945
2427
1785
1255
1061
1375
2143
2869
3051
2652
2021
1437
1103
1209
1845
2624
3016
2767
2176
1535
1104
1053
1535
2335
2925
2883
2377
1738
1201
986
1302
2055
2777
2975
2589
1968
1375
1043
1162
1810
2601
3021
2789
2223
1596
1159
1107
1627
2454
3136
3167
2721
2135
1664
1495
1811
2538
3263
3414
2915
2201
1519
1090
1104
1641
2373
2741
2499
1927
1305
880
843
1360
2190
2827
2839
2370
1733
1199
966
1248
1999
2735
2950
2591
1968
1366
1009
1104
1738
2542
2991
2777
2205
1568
1114
1038
1496
2288
2903
2902
2421
1778
1248
1014
1296
2030
2771
3001
2640
2015
1411
1052
1130
1751
2550
3009
2819
2261
1621
1151
1052
1492
2282
2909
2925
2448
1809
1264
1031
1285
2000
2747
2992
2641
2030
1430
1074
1142
1761
2557
3024
2838
2285
1648
1185
1098
1553
2338
2981
3005
2530
1901
1346
1099
1355
2080
2832
3111
2761
2159
1556
1193
1264
1871
2679
3178
2993
2430
1791
1328
1217
1644
2419
3091
3142
2672
2032
1481
1219
1456
2166
2927
3211
2862
2256
1659
1279
1328
1913
2704
3205
3039
2480
1842
1351
1204
1600
2357
3003
3037
2557
1905
1339
1056
1264
1953
2704
2971
2638
2027
1388
992
1031
1615
2402
2892
2735
2189
1535
1061
926
1334
2117
2775
2846
2399
1766
1200
915
1119
1811
2559
2880
2559
1969
1359
962
979
1557
2352
2865
2737
2211
1575
1072
923
1329
2112
2787
2869
2433
1801
1232
936
1137
1829
2591
2902
2608
2007
1411
1022
1040
1600
2394
2909
2786
2256
1628
1125
965
1344
2126
2816
2917
2477
1840
1263
971
1171
1854
2625
2946
2655
2058
1429
1022
1023
1582
2382
2918
2815
2287
1643
1141
976
1367
2126
2807
2913
2481
1853
1268
960
1136
1826
2608
2958
2685
2096
1472
1059
1048
1578
2368
2905
2800
2273
1639
1143
976
1345
2116
2806
2933
2502
1872
1293
993
1162
1835
2605
2949
2674
2090
1466
1051
1023
1557
2353
2911
2826
2305
1665
1155
976
1328
2085
2768
2896
2479
1856
1277
974
1127
1805
2559
2943
2689
2119
1491
1065
1013
1533
2327
2895
2815
2302
1657
1139
949
1290
2047
2771
2928
2526
1899
1310
992
1131
1792
2559
2950
2688
2109
1493
1088
1072
1597
2384
2967
2901
2393
1755
1233
1041
1360
2115
2817
2986
2594
1965
1360
1014
1136
1791
2559
2971
2723
2145
1506
1059
994
1488
2272
2847
2794
2287
1648
1133
927
1248
2007
2736
2911
2512
1891
1296
959
1075
1719
2499
2906
2683
2114
1477
1042
982
1473
2287
2901
2918
2483
1905
1434
1278
1641
2426
3211
3451
3025
2354
1711
1302
1339
1891
2601
2938
2625
1970
1283
816
746
1237
2061
2701
2712
2251
1639
1127
910
1201
1940
2685
2910
2543
1919
1309
959
1057
1692
2481
2919
2711
2160
1519
1073
997
1472
2272
2892
2877
2389
1750
1205
976
1264
2002
2749
2973
2612
1987
1377
1010
1094
1713
2501
2953
2755
2192
1568
1115
1023
1488
2275
2898
2909
2429
1791
1263
1034
1296
2018
2753
2995
2649
2039
1441
1086
1168
1788
2559
3030
2833
2270
1650
1182
1084
1512
2314
2961
2988
2518
1891
1353
1117
1361
2081
2817
3079
2734
2127
1520
1155
1223
1834
2637
3117
2929
2368
1741
1280
1181
1621
2409
3061
3093
2611
1984
1435
1194
1441
2170
2934
3216
2865
2239
1634
1253
1306
1903
2694
3187
3009
2445
1802
1314
1184
1603
2379
3029
3081
2607
1955
1380
1100
1312
2003
2739
3009
2667
2041
1423
1037
1061
1634
2416
2901
2754
2215
1583
1097
969
1371
2139
2781
2833
2375
1726
1168
909
1136
1844
2606
2906
2590
1984
1363
975
1003
1565
2381
2881
2736
2196
1563
1077
937
1335
2117
2782
2847
2394
1754
1205
945
1157
1856
2623
2929
2617
2016
1397
1009
1042
1621
2423
2945
2813
2261
1618
1117
960
1345
2118
2800
2884
2446
1821
1258
976
1179
1877
2654
2967
2663
2066
1441
1041
1044
1600
2390
2912
2795
2266
1635
1136
985
1369
2145
2817
2912
2480
1843
1275
974
1159
1842
2606
2933
2646
2067
1456
1047
1045
1586
2387
2931
2841
2323
1680
1161
987
1356
2114
2801
2923
2499
1872
1310
1015
1199
1874
2640
2982
2693
2096
1467
1063
1057
1597
2385
2933
2832
2305
1658
1149
966
1330
2099
2791
2928
2509
1879
1296
976
1125
1799
2590
2959
2688
2109
1477
1067
1050
1581
2364
2912
2828
2314
1668
1162
976
1322
2087
2789
2938
2527
1904
1328
1010
1136
1810
2590
2960
2703
2112
1483
1053
1018
1535
2341
2910
2841
2329
1691
1170
971
1294
2057
2771
2935
2544
1928
1357
1041
1190
1856
2645
3038
2782
2193
1555
1110
1066
1581
2378
2960
2901
2395
1759
1246
1041
1343
2085
2784
2934
2516
1888
1286
946
1073
1727
2512
2915
2681
2083
1457
1013
960
1461
2259
2864
2826
2318
1667
1133
935
1251
1998
2721
2918
2530
1915
1326
987
1103
1791
2625
3107
2928
2402
1835
1440
1431
1958
2775
3397
3320
2734
2019
1415
1127
1328
1983
2619
2730
2297
1637
1040
720
859
1535
2365
2818
2627
2083
1463
1023
957
1437
2229
2845
2832
2337
1680
1138
915
1205
1954
2695
2903
2531
1915
1314
962
1066
1692
2483
2922
2713
2158
1516
1072
981
1446
2235
2854
2856
2375
1744
1204
976
1255
1989
2727
2950
2590
1967
1361
1011
1091
1735
2522
2967
2771
2217
1589
1127
1040
1508
2297
2930
2938
2448
1803
1264
1022
1283
2000
2752
2998
2645
2019
1415
1065
1141
1759
2553
3024
2834
2272
1645
1179
1082
1531
2323
2961
2982
2497
1859
1321
1079
1335
2064
2815
3085
2738
2129
1523
1165
1232
1845
2656
3137
2955
2389
1759
1289
1178
1601
2378
3031
3070
2599
1968
1414
1161
1392
2112
2867
3146
2791
2171
1561
1170
1205
1800
2590
3071
2886
2315
1664
1163
1023
1427
2189
2819
2851
2378
1727
1153
877
1098
1821
2590
2869
2546
1925
1293
887
899
1478
2290
2786
2640
2096
1447
960
837
1264
2047
2721
2780
2326
1686
1127
852
1062
1765
2525
2823
2512
1914
1303
918
947
1534
2339
2847
2703
2163
1499
1015
887
1296
2077
2745
2829
2378
1738
1166
877
1082
1785
2549
2858
2548
1948
1329
929
946
1520
2336
2856
2726
2189
1535
1046
894
1280
2059
2736
2829
2394
1761
1202
912
1104
1797
2559
2883
2583
1985
1360
962
961
1506
2329
2864
2751
2223
1584
1097
943
1319
2086
2767
2864
2425
1785
1206
911
1091
1778
2559
2897
2613
2015
1391
979
975
1520
2320
2864
2772
2243
1596
1086
911
1277
2055
2745
2864
2434
1798
1219
921
1097
1777
2557
2899
2624
2032
1408
986
976
1520
2325
2889
2807
2286
1635
1106
924
1271
2035
2751
2896
2480
1853
1277
966
1127
1807
2587
2947
2674
2089
1462
1039
1006
1525
2319
2886
2815
2298
1651
1145
967
1307
2067
2768
2905
2485
1862
1283
960
1098
1766
2546
2933
2670
2082
1450
1023
983
1495
2295
2869
2802
2288
1648
1141
954
1289
2045
2763
2930
2536
1922
1329
1023
1165
1836
2625
3024
2768
2181
1535
1088
1023
1530
2340
2935
2896
2384
1734
1214
1008
1327
2081
2800
2979
2559
1927
1323
976
1072
1729
2515
2927
2676
2092
1455
1019
966
1469
2285
2878
2832
2330
1680
1153
944
1232
2000
2745
2939
2549
1923
1326
978
1091
1742
2544
3002
2821
2306
1746
1374
1366
1911
2757
3439
3420
2864
2160
1552
1239
1454
2112
2761
2880
2416
1719
1078
720
834
1489
2319
2783
2603
2064
1450
1012
947
1431
2239
2848
2827
2343
1707
1181
965
1248
1983
2713
2928
2555
1927
1328
976
1073
1712
2507
2951
2746
2177
1535
1088
1008
1477
2289
2919
2913
2427
1777
1247
1010
1287
2015
2769
2993
2639
2028
1426
1071
1139
1747
2537
2992
2787
2225
1591
1139
1063
1519
2310
2951
2962
2480
1839
1284
1040
1303
2031
2786
3047
2699
2079
1459
1091
1168
1789
2597
3062
2866
2297
1657
1190
1091
1553
2352
3008
3040
2559
1930
1377
1123
1379
2119
2886
3163
2811
2194
1589
1223
1280
1895
2699
3191
3003
2448
1826
1360
1251
1691
2475
3134
3153
2661
2011
1456
1205
1445
2173
2935
3227
2871
2254
1648
1270
1313
1899
2690
3189
3006
2425
1767
1267
1136
1535
2302
2950
2991
2512
1856
1279
995
1218
1926
2688
2967
2639
2011
1392
992
1013
1591
2384
2885
2746
2208
1574
1087
950
1355
2131
2795
2848
2393
1759
1197
922
1143
1855
2619
2919
2598
1975
1361
970
999
1585
2383
2887
2752
2211
1565
1072
925
1328
2114
2793
2865
2423
1793
1230
949
1158
1872
2643
2951
2638
2021
1396
1004
1023
1586
2383
2910
2786
2249
1615
1118
967
1357
2137
2817
2917
2477
1840
1258
960
1136
1844
2614
2936
2638
2032
1415
1008
1008
1583
2379
2914
2800
2256
1616
1104
943
1297
2096
2785
2896
2463
1826
1249
953
1141
1839
2625
2962
2672
2068
1425
1009
1008
1570
2379
2928
2817
2288
1646
1149
991
1363
2135
2822
2935
2495
1857
1279
972
1134
1803
2559
2927
2643
2054
1429
1014
1008
1561
2362
2913
2822
2297
1655
1147
973
1337
2090
2784
2916
2495
1858
1280
973
1135
1811
2595
2946
2676
2080
1453
1036
1003
1529
2328
2890
2811
2293
1648
1130
934
1294
2063
2763
2903
2495
1862
1277
957
1104
1767
2538
2907
2646
2066
1439
1015
989
1516
2322
2901
2834
2326
1680
1165
977
1319
2075
2776
2928
2527
1890
1303
976
1126
1795
2587
2975
2727
2141
1499
1068
1003
1502
2295
2864
2800
2291
1649
1131
935
1264
2015
2722
2889
2480
1845
1247
912
1040
1698
2487
2880
2640
2064
1434
997
954
1452
2250
2832
2775
2275
1631
1107
914
1259
2056
2843
3110
2768
2198
1665
1370
1519
2160
2919
3289
2955
2289
1590
1071
929
1341
2064
2587
2511
1997
1361
860
689
1023
1807
2559
2783
2427
1815
1243
896
1023
1664
2450
2869
2651
2087
1455
1009
944
1429
2230
2832
2814
2322
1675
1151
929
1217
1959
2688
2895
2523
1911
1318
976
1083
1710
2495
2918
2703
2137
1498
1051
975
1454
2246
2857
2843
2362
1728
1194
955
1232
1977
2731
2960
2595
1969
1365
1008
1099
1730
2526
2963
2768
2205
1584
1134
1043
1501
2288
2915
2923
2441
1802
1270
1040
1314
2055
2801
3056
2703
2096
1488
1131
1200
1818
2620
3082
2887
2320
1687
1227
1136
1591
2381
3024
3049
2559
1936
1395
1157
1415
2147
2901
3175
2816
2196
1611
1245
1308
1916
2717
3198
3002
2432
1794
1325
1212
1646
2417
3069
3105
2624
1985
1433
1179
1420
2131
2866
3125
2751
2112
1483
1091
1133
1718
2502
2974
2783
2207
1552
1061
931
1344
2131
2775
2813
2339
1695
1137
873
1107
1811
2559
2838
2507
1885
1275
912
961
1558
2358
2843
2679
2138
1503
1038
910
1328
2111
2781
2849
2395
1743
1183
896
1112
1829
2595
2880
2559
1973
1367
981
994
1588
2381
2887
2739
2193
1552
1072
933
1349
2122
2779
2844
2389
1754
1199
927
1141
1840
2601
2893
2579
1974
1358
960
977
1535
2346
2856
2714
2161
1505
1011
880
1291
2093
2771
2859
2418
1781
1218
944
1151
1850
2617
2933
2637
2037
1417
1009
1023
1591
2393
2919
2795
2277
1629
1136
990
1379
2160
2841
2929
2480
1839
1265
983
1183
1875
2651
2977
2678
2082
1458
1063
1068
1613
2413
2955
2844
2314
1667
1168
993
1360
2126
2811
2924
2497
1876
1313
1023
1207
1903
2674
3006
2702
2098
1472
1063
1058
1629
2401
2941
2842
2319
1680
1175
1018
1386
2158
2847
2965
2542
1909
1331
1031
1199
1879
2661
3009
2731
2142
1520
1117
1090
1616
2403
2960
2870
2347
1707
1200
1031
1387
2154
2859
2997
2589
1954
1377
1068
1223
1889
2669
3038
2777
2209
1569
1141
1114
1645
2445
3022
2949
2443
1809
1301
1126
1468
2231
2944
3101
2677
2042
1455
1141
1296
1937
2716
3099
2832
2242
1620
1190
1149
1653
2429
2998
2914
2387
1742
1229
1023
1344
2099
2818
2992
2591
1953
1360
1038
1163
1818
2594
2987
2741
2163
1520
1088
1043
1554
2352
2943
2887
2390
1774
1286
1133
1499
2303
3085
3317
2970
2384
1837
1507
1604
2196
2931
3277
2943
2279
1567
1040
896
1328
2086
2657
2624
2155
1535
1057
882
1215
1973
2716
2912
2543
1929
1340
995
1107
1747
2535
2957
2736
2166
1535
1095
1037
1527
2309
2903
2862
2354
1713
1197
986
1278
2032
2772
2981
2608
1983
1379
1042
1136
1771
2559
3007
2802
2231
1594
1136
1067
1535
2325
2941
2929
2443
1808
1280
1057
1342
2082
2816
3034
2661
2032
1439
1096
1183
1808
2602
3046
2833
2269
1629
1169
1088
1535
2335
2949
2949
2462
1821
1287
1068
1335
2066
2813
3056
2704
2097
1501
1153
1232
1841
2626
3084
2870
2302
1681
1227
1142
1597
2406
3056
3071
2599
1963
1422
1184
1443
2173
2916
3171
2806
2187
1586
1221
1292
1905
2705
3187
2995
2422
1781
1310
1202
1645
2422
3057
3087
2602
1959
1397
1136
1364
2073
2807
3049
2679
2043
1423
1046
1099
1682
2465
2928
2741
2179
1523
1045
923
1354
2131
2768
2805
2345
1694
1150
887
1122
1836
2599
2868
2533
1917
1296
918
971
1578
2378
2858
2693
2146
1503
1038
919
1345
2123
2765
2817
2367
1729
1171
909
1138
1855
2607
2887
2559
1968
1363
983
1021
1607
2396
2895
2742
2195
1552
1082
957
1366
2145
2803
2863
2411
1772
1213
944
1162
1872
2640
2935
2618
2004
1392
999
1035
1603
2397
2903
2759
2213
1582
1104
971
1377
2151
2809
2877
2431
1795
1243
960
1161
1858
2624
2929
2628
2018
1409
1013
1041
1612
2400
2910
2771
2229
1590
1093
944
1330
2112
2781
2864
2417
1783
1231
963
1153
1851
2619
2934
2631
2021
1403
1003
1018
1575
2365
2891
2780
2253
1616
1119
965
1355
2128
2800
2898
2463
1837
1264
978
1168
1855
2620
2938
2649
2063
1446
1041
1040
1585
2383
2917
2807
2280
1635
1150
991
1373
2135
2826
2922
2485
1852
1285
985
1156
1836
2608
2955
2672
2080
1461
1072
1068
1607
2387
2929
2822
2295
1663
1159
986
1351
2125
2820
2946
2533
1910
1330
1033
1191
1854
2640
3006
2725
2132
1499
1078
1056
1585
2379
2944
2876
2369
1737
1218
1040
1392
2141
2847
3001
2590
1970
1394
1088
1227
1904
2671
3040
2765
2175
1535
1127
1097
1605
2384
2936
2864
2345
1700
1185
995
1329
2079
2786
2954
2541
1906
1316
990
1127
1779
2545
2936
2701
2122
1491
1065
1022
1531
2322
2897
2835
2337
1707
1190
1001
1325
2071
2795
2987
2635
2074
1552
1290
1478
2191
3024
3514
3275
2655
1991
1489
1360
1771
2460
2951
2821
2246
1535
976
738
1023
