2146
2150
2106
2009
1953
1941
1985
2071
2151
2197
2167
2091
2005
1979
2025
2113
2210
2257
2231
2157
2069
2001
2014
2083
2163
2224
2221
2147
2047
1965
1939
1991
2075
2139
2153
2103
2009
1911
1866
1886
1940
2011
2064
2033
1961
1869
1797
1797
1853
1927
1983
1977
1911
1835
1772
1760
1807
1883
1954
1979
1936
1847
1759
1713
1744
1823
1915
1968
1957
1911
1827
1758
1745
1796
1875
1939
1946
1889
1806
1744
1741
1802
1887
1969
2000
1965
1890
1805
1762
1783
1854
1935
1983
1966
1903
1812
1759
1767
1825
1907
1966
1973
1917
1825
1746
1723
1775
1862
1949
1983
1940
1870
1783
1739
1758
1831
1919
1981
1968
1898
1819
1745
1747
1808
1894
1965
1987
1939
1856
1783
1758
1793
1871
1950
1986
1948
1878
1802
1755
1779
1847
1937
2000
2003
1951
1887
1818
1823
1895
1986
2066
2075
2015
1921
1835
1802
1840
1909
1988
2019
1973
1883
1787
1725
1739
1811
1902
1956
1941
1874
1790
1733
1751
1824
1919
1994
1999
1934
1845
1777
1755
1787
1866
1947
1997
1968
1898
1803
1755
1775
1842
1931
1991
1973
1905
1827
1792
1841
1971
2160
2338
2467
2530
2558
2551
2545
2559
2599
2606
2559
2477
2318
2137
1975
1875
1835
1836
1838
1808
1744
1674
1626
1651
1735
1857
1953
1987
1949
1860
1759
1713
1741
1817
1904
1951
1926
1854
1763
1712
1739
1811
1907
1972
1978
1911
1820
1757
1737
1789
1871
1939
1963
1914
1843
1783
1763
1807
1883
1965
2003
1982
1910
1826
1782
1802
1872
1947
2000
1985
1911
1822
1776
1787
1857
1954
2032
2063
2014
1930
1858
1831
1871
1950
2030
2081
2054
1978
1894
1845
1860
1931
2013
2074
2081
2032
1967
1911
1904
1962
2064
2160
2197
2160
2085
2000
1967
2000
2083
2176
2227
2207
2128
2015
1950
1958
2036
2145
2229
2243
2190
2106
2031
2007
2047
2118
2176
2181
2124
2032
1947
1901
1920
1983
2041
2075
2038
1963
1871
1819
1830
1898
1971
2029
2017
1947
1847
1762
1732
1778
1856
1936
1959
1907
1833
1754
1721
1750
1826
1911
1959
1951
1872
1783
1711
1722
1781
1874
1949
1965
1904
1808
1726
1710
1769
1858
1948
1980
1943
1872
1793
1759
1783
1840
1915
1967
1930
1867
1789
1738
1747
1811
1906
1971
1977
1920
1840
1766
1743
1781
1867
1942
1970
1927
1840
1753
1729
1773
1856
1942
1990
1967
1877
1796
1736
1744
1815
1906
1971
1981
1911
1825
1745
1758
1804
1875
1949
1970
1939
1872
1806
1770
1802
1872
1975
2039
2032
1967
1895
1838
1837
1899
1978
2042
2042
1982
1892
1805
1764
1793
1856
1943
1998
1968
1883
1761
1701
1717
1797
1873
1949
1936
1872
1790
1743
1749
1819
1905
1979
1995
1935
1843
1764
1733
1773
1850
1930
1965
1938
1882
1813
1776
1793
1858
1936
1980
1968
1924
1882
1904
2011
2181
2383
2559
2672
2672
2595
2478
2384
2357
2368
2380
2341
2213
2025
1840
1701
1657
1694
1773
1837
1842
1806
1746
1699
1703
1754
1844
1921
1947
1900
1813
1738
1711
1761
1850
1934
1970
1940
1863
1775
1715
1729
1796
1889
1955
1954
1891
1798
1744
1741
1803
1894
1978
2011
1973
1892
1805
1757
1781
1849
1935
1982
1969
1906
1823
1775
1787
1858
1938
1984
1994
1927
1840
1782
1791
1861
1953
2031
2064
2018
1936
1849
1805
1826
1887
1975
2033
2021
1962
1875
1819
1839
1925
2043
2125
2130
2082
1989
1920
1909
1967
2069
2151
2187
2154
2074
1997
1951
1985
2071
2175
2231
2223
2151
2059
2001
2015
2084
2173
2240
2242
2177
2083
1997
1961
1997
2075
2147
2176
2134
2064
1977
1936
1952
2007
2096
2126
2086
1990
1887
1822
1809
1861
1939
2016
2032
1984
1904
1826
1808
1845
1915
1985
2007
1968
1885
1804
1766
1799
1881
1968
2021
2005
1938
1856
1785
1785
1838
1915
1983
2000
1951
1875
1808
1791
1837
1919
2000
2041
2005
1935
1863
1821
1839
1907
1984
2039
2031
1968
1884
1838
1842
1906
1993
2059
2064
1999
1911
1840
1818
1870
1947
2032
2063
2022
1943
1853
1805
1835
1904
1987
2035
2023
1967
1891
1840
1853
1911
1989
2062
2070
2013
1929
1849
1828
1870
1939
2025
2071
2062
1991
1910
1867
1890
1966
2058
2114
2102
2027
1936
1867
1846
1893
1973
2046
2066
2005
1910
1820
1779
1819
1897
1977
2018
1990
1919
1840
1783
1805
1875
1967
2018
2000
1936
1852
1777
1770
1826
1915
1998
2033
1997
1919
1847
1829
1872
1965
2058
2091
2047
1973
1894
1861
1917
2054
2215
2370
2458
2471
2446
2411
2416
2448
2496
2538
2513
2415
2256
2083
1943
1873
1870
1904
1917
1879
1813
1744
1706
1729
1813
1917
1979
1975
1910
1823
1750
1733
1798
1895
1988
2012
1981
1908
1823
1779
1803
1882
1963
1996
1983
1930
1847
1799
1808
1860
1935
1994
1998
1939
1854
1779
1760
1814
1920
2017
2039
1998
1910
1827
1801
1840
1920
2001
2047
2027
1957
1867
1808
1822
1909
1990
2063
2062
1991
1903
1821
1808
1872
1971
2057
2083
2030
1947
1861
1825
1851
1937
2047
2113
2103
2039
1966
1904
1905
1970
2065
2129
2146
2095
2028
1972
1965
2019
2104
2177
2195
2160
2095
2023
1991
2030
2107
2190
2239
2210
2130
2032
1968
1968
2031
2115
2183
2180
2118
2019
1940
1917
1955
2017
2082
2101
2059
1980
1891
1843
1859
1918
1991
2053
2031
1953
1861
1796
1799
1856
1931
1988
1994
1935
1847
1789
1776
1830
1925
2016
2054
2007
1933
1844
1795
1822
1887
1957
2001
1988
1926
1840
1773
1776
1845
1933
2010
2021
1969
1891
1830
1808
1856
1929
2000
2037
2001
1923
1839
1791
1817
1899
1991
2056
2047
1986
1904
1847
1853
1911
1999
2075
2081
2007
1913
1833
1808
1863
1951
2021
2065
2031
1943
1846
1802
1823
1892
1984
2034
2032
1977
1895
1838
1835
1902
1997
2080
2118
2081
2002
1925
1889
1934
2014
2090
2111
2038
1953
1872
1827
1858
1936
2021
2071
2045
1965
1866
1788
1776
1834
1923
1996
2003
1959
1882
1807
1770
1806
1883
1966
2003
1962
1888
1809
1779
1831
1909
1995
2047
2032
1959
1868
1795
1790
1841
1935
2007
2031
2001
1965
1937
1982
2102
2274
2443
2553
2559
2499
2409
2331
2308
2341
2370
2368
2287
2144
1974
1838
1767
1787
1847
1891
1918
1878
1818
1751
1741
1791
1876
1947
1985
1955
1890
1815
1767
1775
1830
1921
1995
1999
1936
1859
1772
1763
1818
1904
1968
1990
1963
1895
1815
1775
1801
1878
1971
2023
1998
1925
1839
1783
1792
1853
1936
1994
1991
1937
1859
1797
1791
1847
1927
2000
2023
1979
1906
1840
1805
1827
1891
1974
2027
2006
1950
1871
1822
1847
1923
2018
2090
2091
2025
1933
1861
1851
1910
2009
2102
2133
2109
2020
1940
1911
1951
2032
2138
2193
2182
2122
2032
1968
1977
2045
2133
2211
2211
2147
2055
1981
1970
2032
2119
2202
2225
2177
2087
1985
1942
1968
2036
2125
2166
2135
2064
1962
1899
1895
1959
2042
2112
2097
2015
1919
1840
1809
1861
1947
2025
2054
2001
1907
1815
1759
1776
1846
1936
1994
1981
1913
1827
1770
1776
1846
1935
2009
2032
1984
1887
1798
1772
1811
1891
1974
2011
1983
1911
1837
1799
1826
1892
1975
2032
2023
1963
1870
1803
1804
1863
1952
2025
2035
1975
1898
1821
1806
1849
1926
2011
2062
2022
1940
1845
1786
1795
1861
1957
2027
2033
1985
1915
1856
1853
1905
1983
2039
2038
1979
1902
1825
1808
1849
1918
2021
2074
2045
1972
1873
1853
1876
1963
2066
2128
2123
2046
1946
1865
1851
1904
1983
2064
2081
2019
1926
1831
1793
1825
1904
1977
2013
1978
1891
1797
1744
1776
1857
1957
2018
2011
1959
1870
1792
1792
1862
1954
2024
2033
1986
1899
1818
1777
1822
1909
1991
2032
2000
1923
1830
1783
1808
1904
2033
2162
2251
2291
2304
2320
2373
2455
2544
2603
2559
2475
2341
2196
2090
2032
2015
2013
1983
1921
1818
1714
1663
1683
1759
1846
1923
1945
1906
1828
1758
1749
1805
1901
1963
1978
1930
1854
1777
1747
1787
1868
1957
1998
1971
1892
1794
1731
1744
1827
1933
2010
2018
1963
1875
1808
1777
1831
1920
1995
2017
1973
1890
1808
1779
1821
1895
1975
2021
2000
1924
1821
1757
1775
1853
1951
2027
2037
1975
1890
1825
1820
1873
1947
2025
2062
2018
1929
1863
1830
1872
1952
2044
2094
2079
2006
1919
1860
1867
1938
2047
2130
2156
2105
2023
1966
1958
2014
2106
2191
2214
2174
2098
2015
1984
2017
2097
2190
2243
2227
2160
2067
2000
1999
2066
2154
2219
2225
2162
2062
1967
1932
1974
2043
2121
2147
2103
2003
1905
1850
1855
1936
2010
2054
2028
1954
1855
1783
1785
1843
1936
2001
1999
1939
1856
1784
1771
1828
1920
2000
2037
1998
1916
1826
1774
1793
1870
1967
2016
2000
1922
1819
1758
1772
1847
1941
2022
2043
1989
1901
1814
1790
1840
1925
2013
2055
2009
1925
1836
1789
1808
1873
1968
2032
2025
1951
1873
1810
1811
1887
1973
2033
2045
1988
1897
1820
1775
1815
1904
1990
2032
2005
1930
1843
1806
1837
1911
2002
2079
2069
1991
1898
1823
1818
1881
1973
2054
2066
2011
1926
1844
1811
1859
1949
2063
2114
2097
2031
1947
1887
1904
1971
2062
2102
2097
2025
1931
1868
1856
1899
1970
2030
2032
1978
1887
1810
1778
1820
1899
1993
2031
1999
1931
1854
1809
1833
1905
1995
2064
2054
1971
1872
1791
1761
1806
1883
1981
2031
2003
1934
1855
1819
1850
1913
1986
2030
2032
2015
1998
2034
2151
2320
2509
2666
2723
2687
2586
2466
2386
2369
2385
2385
2319
2180
2000
1827
1722
1711
1764
1846
1902
1888
1833
1775
1719
1739
1810
1906
1970
1979
1907
1808
1730
1710
1753
1831
1904
1939
1908
1843
1782
1754
1791
1870
1957
1999
1968
1890
1794
1727
1756
1844
1931
2000
2000
1935
1851
1790
1768
1820
1914
1982
2000
1966
1886
1803
1767
1797
1873
1967
2015
2000
1936
1857
1809
1819
1881
1958
2014
2011
1966
1885
1814
1815
1871
1959
2042
2085
2045
1966
1891
1851
1872
1940
2032
2106
2111
2061
1991
1941
1964
2026
2115
2183
2195
2154
2075
1998
1981
2032
2118
2199
2233
2202
2118
2034
1995
2032
2119
2207
2256
2231
2160
2065
1997
2000
2062
2146
2215
2214
2144
2039
1956
1925
1966
2032
2086
2095
2055
1983
1899
1851
1872
1941
2027
2077
2054
1968
1872
1797
1797
1856
1948
2022
2032
1969
1885
1805
1787
1827
1912
1995
2032
1997
1921
1837
1792
1815
1907
2000
2058
2039
1968
1865
1808
1803
1859
1952
2043
2070
2021
1936
1850
1811
1851
1933
2000
2044
2018
1957
1871
1823
1843
1915
1997
2043
2032
1971
1884
1809
1807
1859
1947
2027
2045
2000
1921
1841
1823
1863
1938
2012
2047
2019
1955
1871
1825
1844
1911
2000
2065
2077
2003
1911
1839
1831
1878
1967
2043
2068
2015
1920
1829
1815
1870
1971
2077
2128
2110
2037
1955
1907
1923
1991
2074
2117
2106
2026
1929
1855
1840
1893
1975
2041
2055
1995
1897
1809
1785
1830
1907
1989
2039
2005
1922
1850
1813
1854
1930
2005
2062
2047
1983
1903
1830
1806
1843
1927
2015
2046
2004
1925
1855
1826
1856
1920
2007
2071
2086
2071
2065
2114
2237
2416
2619
2770
2818
2761
2637
2496
2411
2384
2389
2383
2316
2175
2010
1855
1744
1718
1765
1856
1920
1921
1877
1811
1773
1782
1859
1937
1993
1981
1911
1823
1750
1746
1809
1899
1967
1991
1949
1867
1782
1749
1787
1872
1968
2019
2000
1926
1837
1773
1781
1847
1935
2000
2003
1963
1861
1808
1790
1829
1913
2000
2042
1999
1921
1838
1801
1822
1903
1995
2039
2027
1955
1856
1793
1792
1841
1930
2009
2035
1991
1920
1856
1845
1901
1984
2070
2106
2067
1989
1913
1874
1909
1987
2069
2115
2098
2037
1958
1903
1909
1985
2093
2171
2188
2138
2046
1968
1968
2029
2123
2211
2249
2221
2154
2070
2022
2042
2112
2192
2239
2224
2160
2078
2000
1995
2046
2122
2181
2179
2115
2025
1946
1918
1963
2032
2113
2137
2096
2001
1915
1856
1862
1929
2011
2074
2061
1982
1887
1811
1802
1860
1946
2014
2018
1957
1876
1808
1797
1847
1926
2002
2054
2022
1943
1849
1795
1808
1887
1966
2018
2003
1936
1856
1791
1787
1851
1942
2017
2053
1999
1919
1843
1810
1854
1939
2038
2091
2053
1968
1872
1813
1831
1895
1967
2007
2001
1952
1872
1808
1808
1874
1967
2043
2063
2015
1931
1844
1808
1850
1930
2026
2069
2023
1937
1843
1782
1803
1879
1979
2039
2037
1971
1872
1823
1829
1895
1985
2063
2077
2005
1923
1847
1813
1856
1938
2030
2075
2038
1953
1861
1803
1821
1902
2000
2076
2079
2017
1934
1872
1870
1936
2033
2128
2143
2087
1998
1904
1865
1889
1964
2055
2103
2085
2008
1909
1835
1835
1899
1980
2039
2034
1968
1871
1798
1782
1840
1943
2032
2067
2015
1922
1837
1794
1828
1904
1989
2045
2023
1954
1871
1808
1817
1887
1970
2029
2031
1980
1896
1824
1817
1876
2006
2154
2267
2335
2373
2397
2458
2591
2714
2815
2828
2746
2607
2432
2288
2209
2186
2176
2148
2067
1937
1796
1697
1665
1734
1842
1945
1978
1939
1868
1780
1729
1743
1824
1910
1968
1953
1879
1786
1728
1735
1808
1909
2000
2015
1974
1885
1804
1766
1808
1887
1974
2001
1962
1891
1809
1771
1792
1862
1957
2014
2006
1941
1849
1792
1796
1861
1953
2032
2046
1984
1898
1809
1787
1842
1938
2032
2064
2014
1935
1845
1802
1819
1890
1983
2035
2031
1967
1879
1833
1853
1926
2017
2096
2112
2067
1984
1907
1889
1936
2015
2110
2145
2123
2046
1955
1913
1942
2038
2151
2215
2207
2145
2059
1987
1989
2063
2154
2223
2234
2190
2113
2032
2001
2035
2122
2206
2239
2207
2125
2025
1968
1984
2055
2126
2170
2157
2097
2010
1946
1936
1984
2062
2113
2109
2029
1930
1844
1810
1858
1957
2030
2067
2026
1943
1842
1795
1808
1875
1968
2024
2026
1971
1894
1828
1825
1873
1949
2010
2023
1975
1901
1818
1794
1831
1896
1987
2037
2032
1968
1875
1849
1862
1930
2007
2064
2046
1975
1882
1808
1799
1865
1968
2043
2064
2010
1926
1846
1815
1854
1937
2028
2069
2039
1968
1883
1828
1836
1904
1998
2064
2040
1977
1890
1813
1797
1851
1936
2018
2045
2002
1931
1856
1825
1861
1935
2012
2053
2019
1955
1872
1819
1840
1921
2014
2085
2077
1998
1906
1830
1811
1871
1957
2036
2068
2017
1927
1839
1808
1847
1935
2032
2087
2075
2001
1914
1855
1870
1936
2037
2112
2126
2079
1990
1917
1901
1955
2043
2101
2097
2031
1935
1828
1806
1839
1909
1998
2054
2035
1962
1865
1804
1808
1870
1964
2039
2056
1995
1907
1834
1823
1872
1958
2041
2076
2032
1936
1842
1807
1838
1920
2004
2060
2034
1968
1893
1850
1892
2014
2202
2375
2491
2543
2553
2556
2559
2638
2702
2730
2693
2559
2403
2209
2045
1956
1922
1925
1922
1875
1808
1735
1696
1725
1799
1903
1963
1978
1933
1853
1782
1763
1810
1885
1957
1983
1942
1861
1777
1742
1776
1850
1937
1982
1969
1906
1818
1759
1779
1853
1936
2002
2011
1961
1883
1813
1795
1845
1927
2010
2059
2022
1943
1849
1790
1808
1878
1972
2031
2030
1971
1882
1820
1813
1873
1959
2031
2047
1995
1915
1819
1795
1857
1958
2055
2094
2057
1965
1876
1843
1876
1954
2054
2113
2110
2047
1958
1874
1862
1931
2047
2160
2196
2162
2087
2005
1984
2031
2121
2205
2242
2209
2133
2046
2000
2023
2098
2179
2238
2223
2160
2082
2010
2015
2077
2159
2226
2237
2169
2075
1982
1951
1975
2029
2103
2135
2118
2039
1940
1886
1894
1947
2019
2073
2054
1971
1872
1802
1789
1840
1925
2000
2022
1975
1892
1815
1792
1840
1919
2000
2035
2007
1936
1847
1805
1825
1893
1979
2035
2025
1958
1871
1799
1792
1850
1936
2007
2039
2004
1936
1872
1842
1883
1963
2047
2087
2053
1971
1882
1834
1851
1920
2005
2064
2057
1972
1874
1807
1808
1878
1971
2038
2063
2003
1927
1843
1809
1843
1927
2007
2054
2018
1951
1881
1839
1844
1904
1990
2055
2059
1994
1903
1826
1809
1872
1968
2045
2069
2018
1936
1855
1808
1843
1923
2015
2065
2045
1975
1884
1815
1817
1901
1999
2077
2081
2018
1933
1856
1849
1907
2007
2107
2143
2119
2034
1935
1890
1919
1995
2082
2128
2099
2018
1914
1851
1850
1904
1984
2055
2059
1993
1899
1823
1808
1867
1957
2033
2064
2011
1936
1854
1814
1853
1936
2019
2054
2022
1947
1860
1805
1811
1881
1970
2042
2061
2015
1943
1867
1840
1870
1941
2035
2107
2139
2159
2186
2251
2371
2534
2699
2778
2751
2637
2489
2375
2311
2298
2300
2270
2185
2045
1890
1770
1720
1753
1837
1913
1948
1927
1869
1797
1763
1793
1867
1957
2013
2003
1939
1860
1806
1805
1862
1946
2011
2019
1964
1863
1786
1771
1824
1905
1989
2019
1983
1913
1840
1803
1840
1920
2016
2071
2042
1978
1889
1822
1808
1840
1918
1986
2014
1973
1878
1815
1814
1877
1978
2065
2077
2027
1945
1857
1811
1840
1916
2007
2080
2075
2011
1930
1867
1869
1919
1998
2075
2102
2062
1975
1904
1883
1926
2013
2102
2142
2122
2047
1975
1938
1963
2035
2128
2179
2170
2107
2019
1967
1974
2060
2157
2240
2258
2210
2133
2062
2023
2055
2112
2197
2226
2180
2096
2011
1968
1991
2071
2160
2203
2179
2103
1989
1903
1874
1915
2000
2091
2112
2068
1984
1885
1829
1859
1936
2014
2055
2017
1936
1843
1786
1793
1863
1964
2030
2028
1959
1863
1776
1769
1835
1941
2010
2021
1984
1920
1853
1827
1865
1938
2015
2052
2014
1941
1862
1814
1837
1913
2015
2080
2070
1997
1905
1841
1827
1877
1968
2044
2069
2026
1939
1861
1821
1856
1937
2032
2074
2035
1954
1858
1808
1824
1889
1984
2033
2045
1990
1905
1836
1809
1872
1965
2043
2074
2022
1947
1856
1811
1849
1936
2013
2078
2042
1967
1881
1830
1839
1907
1993
2065
2069
2003
1921
1851
1837
1882
1966
2047
2083
2041
1968
1887
1856
1893
1978
2071
2121
2113
2019
1934
1859
1845
1898
1989
2068
2076
2003
1890
1823
1811
1873
1963
2047
2088
2057
1969
1893
1843
1861
1917
1983
2015
1991
1923
1839
1785
1808
1883
1969
2039
2042
1995
1917
1840
1815
1856
1939
2025
2064
2023
1941
1845
1803
1856
1970
2128
2261
2329
2346
2323
2341
2397
2475
2548
2587
2539
2428
2277
2131
2030
2006
2029
2042
2015
1936
1834
1746
1681
1718
1810
1921
1991
1989
1925
1845
1789
1782
1836
1914
1973
1979
1930
1872
1810
1797
1851
1939
2015
2055
2013
1920
1828
1775
1801
1872
1965
2023
2007
1939
1858
1784
1783
1852
1947
2020
2032
1981
1893
1813
1780
1831
1921
2029
2078
2043
1954
1856
1790
1810
1895
1993
2065
2075
2011
1919
1853
1847
1906
2003
2091
2105
2042
1942
1854
1817
1871
1968
2063
2107
2082
2014
1936
1905
1929
2002
2102
2165
2159
2097
2013
1943
1935
1998
2096
2175
2212
2176
2096
2004
1971
2007
2095
2191
2237
2212
2136
2039
1975
1978
2041
2134
2186
2176
2109
2014
1948
1936
1984
2063
2128
2147
2097
2000
1914
1862
1893
1957
2031
2068
2039
1969
1883
1837
1843
1899
1969
2032
2029
1959
1863
1803
1778
1836
1905
2001
2031
1987
1899
1808
1755
1801
1887
1965
2003
1997
1948
1872
1824
1840
1906
1988
2046
2057
1993
1919
1858
1847
1888
1968
2042
2071
2029
1937
1851
1815
1855
1937
2033
2091
2062
1983
1883
1819
1823
1893
1983
2062
2058
1969
1865
1810
1818
1881
1978
2055
2067
2020
1955
1877
1831
1851
1929
2029
2091
2071
1993
1901
1840
1845
1909
1999
2066
2064
2000
1907
1837
1826
1883
1980
2063
2086
2038
1955
1874
1833
1857
1935
2020
2068
2033
1968
1877
1839
1851
1934
2034
2113
2128
2082
1992
1914
1872
1905
1984
2064
2083
2032
1941
1853
1805
1825
1904
2001
2059
2035
1958
1875
1808
1807
1869
1943
2021
2029
1967
1879
1793
1793
1846
1933
2016
2061
2026
1952
1865
1814
1842
1917
2000
2064
2059
1991
1904
1840
1863
1966
2112
2239
2322
2358
2336
2309
2310
2346
2389
2429
2423
2356
2244
2117
2016
1975
1982
2001
1996
1936
1847
1776
1740
1759
1830
1934
2009
2032
1982
1897
1815
1792
1831
1903
1975
2012
1975
1895
1808
1776
1796
1870
1959
2019
2014
1967
1888
1827
1820
1860
1942
2026
2059
2007
1919
1826
1782
1831
1925
2017
2064
2037
1970
1890
1831
1850
1907
1987
2045
2034
1974
1889
1824
1815
1886
1983
2065
2097
2058
1963
1872
1837
1872
1949
2027
2079
2047
1972
1878
1830
1852
1929
2025
2096
2101
2038
1954
1887
1899
1962
2062
2141
2169
2135
2069
1996
1967
2000
2092
2189
2240
2218
2125
2018
1939
1953
2032
2136
2205
2206
2139
2043
1960
1957
2005
2092
2159
2179
2147
2063
1970
1921
1943
2004
2077
2098
2047
1967
1874
1841
1872
1947
2034
2096
2086
2005
1909
1827
1791
1827
1904
1969
2006
1984
1922
1841
1795
1821
1891
1982
2021
1998
1925
1842
1803
1819
1883
1968
2032
2035
1978
1890
1802
1780
1830
1918
2011
2043
1998
1920
1843
1808
1847
1921
2015
2064
2032
1967
1882
1822
1820
1867
1959
2016
2031
1984
1911
1844
1831
1869
1947
2019
2059
2026
1959
1885
1840
1863
1936
2029
2080
2061
1978
1883
1812
1806
1858
1943
2011
2029
1983
1904
1837
1824
1877
1969
2047
2080
2039
1963
1869
1814
1838
1903
1986
2043
2032
1969
1898
1840
1841
1888
1964
2029
2044
2009
1942
1875
1859
1904
1987
2078
2112
2077
2001
1923
1863
1872
1931
2007
2071
2070
2003
1919
1847
1835
1887
1966
2023
2031
1977
1893
1811
1792
1840
1921
2000
2045
2031
1968
1886
1838
1845
1901
1981
2036
2030
1970
1885
1820
1829
1890
1979
2041
2055
2002
1922
1843
1817
1872
1980
2113
2225
2279
2283
2267
2271
2321
2390
2450
2467
2426
2322
2192
2085
2019
2006
2021
2031
2007
1946
1856
1776
1754
1806
1903
2002
2046
2022
1946
1855
1797
1808
1869
1938
1988
1999
1949
1873
1813
1811
1885
1979
2063
2069
2010
1915
1817
1782
1811
1901
2000
2039
2019
1950
1853
1808
1818
1878
1953
2007
2009
1959
1889
1831
1826
1885
1968
2045
2067
2032
1963
1883
1843
1874
1957
2046
2086
2037
1967
1873
1818
1841
1915
2026
2100
2099
2031
1963
1877
1863
1919
2002
2085
2107
2064
1978
1904
1879
1927
2013
2112
2174
2155
2103
2018
1967
1975
2047
2142
2212
2223
2173
2085
1998
1980
2021
2107
2181
2200
2155
2079
1990
1947
1981
2046
2135
2182
2162
2086
1991
1929
1936
1993
2074
2122
2112
2043
1967
1889
1859
1901
1984
2077
2105
2055
1959
1856
1823
1849
1918
1994
2033
2014
1945
1850
1776
1770
1842
1953
2047
2054
1990
1895
1819
1802
1845
1940
2014
2043
2000
1921
1843
1806
1830
1893
1977
2032
2026
1970
1891
1833
1840
1899
1967
2031
2031
1984
1907
1835
1824
1874
1965
2042
2066
2019
1948
1873
1842
1856
1921
2005
2064
2047
1984
1902
1841
1855
1919
2005
2082
2086
2014
1909
1834
1814
1871
1949
2031
2073
2035
1956
1861
1813
1852
1937
2025
2070
2038
1968
1883
1822
1808
1860
1965
2059
2087
2037
1952
1871
1840
1877
1962
2035
2067
2026
1947
1872
1834
1871
1949
2033
2089
2093
2032
1950
1900
1902
1951
2027
2095
2105
2039
1954
1872
1840
1889
1971
2047
2083
2035
1951
1856
1801
1828
1909
2013
2083
2071
1985
1877
1829
1838
1905
1997
2064
2069
2001
1911
1841
1824
1871
1957
2043
2087
2047
1973
1896
1847
1869
1924
2000
2045
2051
2001
1936
1903
1936
2055
2210
2368
2461
2461
2405
2321
2269
2253
2304
2373
2365
2271
2133
1979
1871
1840
1874
1941
1985
1981
1925
1858
1801
1794
1842
1925
2006
2038
2000
1923
1850
1811
1851
1926
2015
2058
2017
1937
1852
1807
1837
1904
1977
2028
2014
1955
1876
1825
1836
1897
1978
2037
2059
2002
1925
1840
1806
1841
1919
1999
2042
2027
1994
1909
1867
1878
1943
2037
2083
2079
2011
1905
1826
1815
1871
1965
2058
2098
2064
1975
1904
1869
1901
1963
2032
2077
2064
2002
1926
1883
1909
1979
2070
2138
2131
2078
1983
1906
1897
1953
2037
2147
2191
2160
2070
1993
1969
2015
2103
2192
2233
2206
2119
2013
1954
1968
2032
2128
2207
2220
2160
2063
1969
1941
1977
2047
2107
2138
2099
2034
1966
1918
1936
1999
2072
2118
2097
2005
1895
1821
1838
1915
2017
2097
2101
2032
1933
1843
1823
1865
1954
2022
2031
1968
1893
1810
1775
1807
1875
1984
2038
2027
1953
1867
1798
1803
1859
1953
2031
2058
2002
1920
1840
1822
1872
1963
2053
2089
2047
1968
1885
1839
1858
1927
2015
2066
2047
1979
1894
1835
1840
1903
1989
2054
2038
1982
1890
1829
1825
1883
1984
2076
2112
2065
1956
1851
1810
1841
1923
2022
2077
2047
1970
1879
1813
1818
1875
1967
2033
2062
2004
1924
1850
1825
1867
1943
2027
2067
2032
1968
1885
1841
1873
1951
2032
2085
2070
2000
1917
1849
1840
1889
1968
2035
2055
1991
1902
1851
1856
1923
2015
2096
2110
2066
1983
1890
1855
1892
1975
2064
2135
2123
2037
1935
1855
1843
1901
1985
2063
2079
2025
1936
1856
1826
1866
1937
2000
2025
2000
1932
1855
1808
1822
1883
1975
2047
2045
1971
1890
1821
1807
1877
1984
2067
2093
2047
1955
1890
1854
1879
1959
2037
2073
2037
1975
1900
1866
1920
2046
2215
2362
2436
2443
2395
2341
2320
2350
2385
2417
2398
2303
2175
2021
1904
1863
1890
1933
1958
1951
1897
1824
1770
1787
1869
1975
2045
2035
1966
1873
1807
1793
1851
1946
2029
2059
2003
1919
1822
1785
1815
1890
1969
2017
1999
1936
1854
1803
1831
1904
1985
2037
2032
1974
1899
1841
1834
1883
1971
2062
2093
2046
1968
1878
1839
1868
1943
2029
2078
2058
1981
1893
1842
1859
1927
2031
2101
2096
2029
1934
1855
1845
1906
1999
2082
2103
2053
1961
1874
1842
1877
1957
2061
2125
2126
2065
1985
1933
1943
2010
2107
2161
2160
2115
2039
1984
1974
2031
2129
2219
2250
2209
2121
2021
1969
1997
2081
2171
2227
2217
2145
2043
1968
1961
2001
2090
2159
2166
2107
2013
1927
1909
1967
2059
2143
2160
2096
1995
1899
1829
1845
1923
2019
2070
2064
1985
1885
1807
1805
1869
1965
2031
2034
1978
1900
1822
1811
1872
1954
2031
2059
2007
1919
1821
1771
1790
1865
1964
2024
2004
1956
1889
1841
1853
1918
2007
2096
2101
2030
1929
1835
1806
1857
1953
2037
2074
2031
1937
1850
1808
1829
1903
1999
2067
2062
1989
1903
1835
1834
1895
1974
2042
2055
1999
1921
1840
1835
1878
1957
2032
2070
2037
1966
1879
1829
1847
1919
2002
2064
2064
2000
1917
1847
1844
1906
1994
2070
2082
2016
1926
1843
1814
1862
1947
2029
2059
2009
1922
1838
1803
1833
1911
2007
2077
2073
2006
1914
1846
1843
1903
1985
2079
2105
2055
1966
1881
1849
1875
1953
2064
2096
2058
1983
1889
1850
1894
1983
2075
2131
2115
2045
1951
1872
1862
1905
1993
2073
2096
2037
1970
1872
1830
1865
1952
2025
2075
2035
1954
1862
1814
1840
1909
1999
2064
2059
1998
1914
1850
1851
1890
1971
2064
2079
2017
1917
1842
1826
1867
1937
2013
2058
2032
1957
1871
1814
1831
1904
1985
2075
2136
2151
2153
2177
2256
2384
2507
2604
2617
2531
2398
2264
2173
2143
2160
2186
2150
2047
1927
1810
1735
1745
1808
1904
1968
1975
1927
1843
1789
1777
1835
1930
2016
2037
1988
1899
1808
1777
1817
1907
1991
2032
2003
1932
1838
1774
1776
1845
1938
2017
2036
1984
1903
1835
1823
1891
1978
2045
2059
2000
1919
1840
1810
1853
1923
2014
2067
2042
1975
1879
1829
1838
1901
1979
2039
2041
1977
1887
1820
1808
1873
1969
2061
2085
2038
1967
1890
1856
1889
1967
2062
2111
2078
2001
1915
1861
1883
1968
2078
2154
2165
2118
2031
1953
1936
1994
2094
2177
2208
2166
2095
2012
1978
2015
2096
2175
2215
2189
2112
2018
1965
1979
2061
2154
2239
2255
2189
2085
1990
1959
1997
2077
2155
2173
2130
2039
1945
1898
1920
1983
2064
2097
2067
1981
1876
1803
1793
1861
1973
2069
2075
2000
1908
1828
1817
1872
1943
1984
2002
1954
1874
1789
1742
1776
1869
1966
2027
2017
1952
1871
1810
1815
1869
1952
2020
2025
1973
1901
1812
1791
1841
1934
2015
2030
1989
1914
1844
1810
1846
1930
2015
2082
2075
2000
1915
1853
1856
1914
1999
2063
2064
1974
1878
1801
1793
1859
1958
2058
2086
2038
1958
1867
1813
1839
1907
1989
2038
2036
1973
1877
1818
1813
1872
1962
2032
2062
2011
1926
1840
1808
1857
1936
2032
2071
2012
1946
1856
1808
1825
1903
1991
2043
2032
1959
1855
1786
1799
1874
1970
2055
2078
2023
1923
1844
1815
1851
1935
2029
2077
2045
1966
1867
1823
1845
1911
1995
2065
2065
2000
1911
1853
1862
1933
2031
2105
2112
2055
1971
1893
1870
1904
1981
2057
2089
2054
1969
1874
1812
1814
1882
1965
2010
1994
1936
1870
1824
1841
1917
2003
2084
2075
2002
1909
1818
1773
1801
1875
1971
2019
2005
1949
1869
1819
1839
1907
2002
2080
2080
2000
1897
1815
1808
1883
1999
2121
2198
2229
2228
2234
2293
2399
2518
2617
2633
2554
2411
2256
2167
2125
2112
2119
2097
2019
1904
1791
1715
1714
1778
1867
1941
1971
1936
1858
1793
1765
1792
1865
1949
1998
1978
1912
1835
1781
1791
1856
1946
2013
2004
1943
1856
1783
1778
1839
1925
2013
2045
2011
1936
1855
1812
1835
1895
1970
2016
2002
1939
1853
1792
1807
1879
1989
2067
2066
2001
1909
1826
1801
1843
1920
1995
2033
2016
1945
1861
1830
1872
1959
2062
2089
2044
1963
1870
1811
1824
1900
1998
2087
2101
2061
1984
1919
1900
1942
2023
2113
2151
2126
2058
1977
1937
1966
2028
2128
2183
2179
2122
2033
1984
2000
2080
2179
2261
2262
2190
2083
1986
1962
2021
2115
2193
2211
2161
2075
1990
1967
2000
2073
2147
2176
2147
2076
1982
1916
1907
1963
2042
2097
2073
2003
1909
1840
1819
1861
1933
2002
2032
1986
1890
1789
1744
1777
1858
1949
2003
1990
1936
1862
1806
1806
1861
1935
1999
2011
1961
1888
1824
1801
1843
1927
2000
2032
1999
1917
1856
1815
1830
1900
1987
2063
2026
1959
1872
1819
1814
1871
1968
2047
2061
2000
1903
1824
1808
1856
1917
2010
2056
2009
1919
1810
1780
1823
1911
2013
2081
2071
2000
1915
1840
1840
1894
1968
2032
2045
1991
1904
1823
1792
1831
1917
2000
2047
2004
1921
1839
1794
1838
1920
2010
2064
2039
1966
1872
1803
1801
1860
1953
2017
2031
1967
1878
1810
1789
1834
1916
2001
2047
2022
1953
1872
1832
1847
1910
2005
2057
2047
1983
1892
1831
1845
1904
1989
2047
2053
2001
1927
1856
1840
1900
2001
2108
2146
2119
2037
1942
1894
1910
1971
2054
2099
2078
1997
1895
1829
1817
1877
1965
2029
2041
1987
1900
1827
1805
1849
1932
2019
2067
2035
1957
1865
1803
1813
1879
1968
2045
2047
1991
1920
1858
1847
1894
1968
2031
2059
2018
1936
1840
1791
1808
1873
1975
2054
2067
2061
2044
2095
2207
2383
2585
2735
2769
2704
2559
2438
2368
2363
2371
2354
2279
2143
1959
1802
1716
1729
1805
1890
1941
1927
1878
1829
1799
1811
1871
1953
2001
1997
1936
1850
1773
1759
1809
1897
1975
2013
1968
1876
1789
1744
1767
1843
1947
2011
2000
1921
1829
1779
1801
1874
1973
2046
2062
2000
1911
1840
1818
1861
1939
2025
2078
2037
1947
1857
1814
1850
1930
2007
2059
2037
1983
1887
1807
1797
1857
1958
2043
2064
2010
1927
1871
1845
1885
1975
2071
2099
2057
1968
1883
1852
1889
1983
2097
2158
2144
2085
2000
1952
1968
2037
2133
2205
2219
2162
2113
2053
2023
2065
2151
2234
2266
2222
2131
2036
2007
2060
2141
2233
2287
2261
2175
2066
1984
1969
2047
2142
2200
2210
2146
2064
1971
1930
1949
2010
2084
2116
2083
1993
1904
1841
1857
1917
2000
2063
2042
1978
1887
1817
1802
1858
1947
2020
2023
1966
1885
1819
1801
1851
1935
2027
2064
2001
1913
1823
1775
1799
1873
1963
2031
2030
1968
1892
1821
1818
1874
1957
2021
2042
1996
1915
1822
1781
1815
1899
1998
2046
2020
1952
1861
1808
1837
1905
1999
2066
2071
2014
1934
1865
1853
1899
1965
2020
2035
1991
1907
1833
1811
1868
1973
2045
2073
2017
1924
1829
1781
1807
1872
1962
2035
2032
1970
1889
1826
1825
1889
1981
2055
2064
2001
1921
1840
1808
1840
1923
2012
2055
2017
1948
1857
1804
1821
1889
1981
2047
2062
1991
1904
1831
1814
1873
1959
2045
2071
2019
1932
1843
1818
1859
1936
2005
2033
1998
1929
1862
1824
1840
1904
2000
2082
2086
2019
1938
1895
1919
1985
2087
2160
2159
2078
1963
1866
1827
1870
1949
2033
2086
2053
1968
1873
1818
1833
1901
1984
2039
2035
1974
1893
1822
1814
1879
1966
2032
2037
1981
1898
1821
1799
1849
1923
2015
2067
2038
1959
1857
1801
1818
1886
1975
2053
2058
1975
1889
1821
1839
1943
2113
2288
2416
2480
2509
2519
2544
2609
2675
2733
2731
2642
2485
2306
2144
2036
2003
2012
2003
1957
1865
1783
1717
1703
1745
1835
1920
1971
1950
1883
1810
1757
1777
1846
1933
1981
1957
1881
1783
1717
1713
1776
1881
1971
1990
1937
1851
1779
1759
1793
1886
1969
2010
1984
1904
1811
1786
1808
1887
1974
2026
2004
1938
1845
1767
1778
1837
1933
2029
2043
1999
1925
1852
1822
1866
1951
2027
2063
2013
1919
1818
1795
1833
1913
2010
2064
2043
1968
1872
1807
1796
1858
1968
2079
2112
2070
1989
1917
1902
1947
2033
2117
2155
2122
2047
1975
1936
1974
2068
2160
2224
2218
2151
2065
2003
2014
2070
2146
2209
2230
2199
2125
2054
2034
2097
2165
2224
2234
2186
2105
2020
1959
1968
2030
2123
2171
2144
2070
1967
1885
1871
1924
2002
2044
2038
1981
1904
1834
1808
1851
1929
2006
2038
2000
1920
1828
1769
1778
1839
1927
1990
1984
1927
1846
1783
1783
1855
1957
2041
2059
1999
1911
1833
1794
1831
1917
2000
2026
1984
1908
1825
1779
1815
1903
1987
2046
2031
1956
1854
1783
1791
1866
1965
2035
2043
1991
1904
1821
1799
1851
1939
2031
2072
2029
1940
1845
1790
1809
1878
1967
2041
2054
2011
1939
1886
1884
1936
2015
2077
2065
1986
1890
1803
1775
1825
1904
1991
2032
2009
1941
1855
1807
1822
1904
1997
2055
2039
1982
1890
1817
1812
1873
1968
2044
2073
2019
1926
1854
1825
1872
1958
2032
2065
2021
1945
1870
1828
1847
1905
1990
2069
2081
2030
1931
1856
1847
1917
2012
2096
2118
2083
2005
1938
1915
1949
2014
2097
2128
2096
1999
1901
1840
1853
1911
1987
2045
2047
1984
1892
1814
1799
1843
1913
2000
2023
1974
1893
1818
1777
1828
1920
2003
2064
2032
1955
1852
1787
1793
1875
1984
2057
2065
2009
1934
1866
1849
1890
1963
2032
2065
2045
2018
2011
2065
2221
2410
2605
2735
2767
2698
2593
2481
2423
2416
2426
2407
2319
2158
1959
1808
1728
1739
1800
1860
1875
1865
1810
1767
1751
1795
1870
1936
1983
1954
1874
1793
1743
1754
1828
1909
1969
1963
1896
1808
1742
1737
1803
1891
1967
1981
1935
1859
1791
1755
1799
1878
1972
2023
2000
1927
1840
1779
1792
1865
1950
2026
2014
1951
1856
1789
1771
1831
1921
2005
2035
2003
1930
1844
1799
1833
1907
1995
2059
2041
1976
1891
1830
1840
1908
1995
2065
2071
2003
1926
1862
1835
1869
1966
2079
2126
2103
2044
1984
1945
1973
2054
2141
2187
2162
2101
2017
1968
1983
2064
2163
2240
2259
2222
2142
2071
2054
2096
2170
2247
2277
2235
2159
2064
2007
2031
2107
2192
2255
2228
2141
2030
1947
1931
1973
2062
2129
2144
2078
1974
1875
1845
1889
1984
2071
2098
2054
1970
1879
1826
1840
1900
1974
2027
2007
1941
1851
1787
1785
1846
1937
2014
2031
1975
1883
1806
1776
1826
1918
2005
2043
2013
1935
1847
1792
1810
1883
1983
2047
2039
1970
1875
1808
1809
1872
1965
2034
2035
1970
1893
1825
1801
1838
1915
1995
2021
1982
1914
1840
1807
1838
1904
2003
2077
2066
1999
1899
1823
1808
1857
1936
1986
2009
1975
1910
1845
1822
1861
1939
2026
2073
2033
1953
1857
1805
1823
1904
1991
2057
2045
1983
1890
1823
1808
1867
1952
2033
2063
2007
1925
1846
1808
1842
1920
2017
2064
2032
1954
1867
1811
1829
1904
2002
2068
2074
2012
1926
1857
1857
1931
2023
2091
2102
2047
1972
1902
1897
1943
2054
2126
2153
2112
2023
1925
1866
1871
1926
1993
2057
2043
1971
1872
1798
1783
1840
1936
2015
2042
2000
1915
1827
1792
1831
1909
1986
2029
2000
1936
1844
1795
1811
1883
1963
2023
2023
1971
1888
1822
1808
1857
1939
2040
2119
2155
2174
2192
2263
2384
2544
2690
2765
2734
2623
2482
2371
2324
2315
2320
2288
2190
2032
1865
1729
1681
1727
1822
1913
1947
1910
1836
1751
1728
1778
1861
1952
1998
1968
1904
1813
1748
1758
1823
1913
1981
1987
1931
1847
1769
1744
1791
1879
1979
2022
1981
1893
1808
1765
1799
1876
1967
2012
1989
1918
1822
1775
1779
1844
1936
2000
2014
1958
1872
1808
1802
1863
1966
2045
2078
2023
1935
1841
1805
1829
1905
1997
2059
2032
1954
1860
1808
1830
1902
1984
2064
2091
2043
1968
1904
1903
1959
2045
2112
2122
2094
2019
1937
1903
1945
2035
2146
2207
2195
2130
2043
1981
1984
2062
2150
2242
2259
2212
2128
2045
2025
2080
2170
2257
2294
2240
2140
2032
1987
2031
2115
2207
2255
2224
2141
2030
1937
1920
1967
2054
2127
2128
2069
1973
1888
1853
1887
1959
2025
2035
1984
1902
1814
1778
1794
1867
1968
2044
2035
1965
1867
1793
1786
1843
1933
2000
2013
1963
1881
1792
1769
1821
1910
1993
2039
2011
1936
1853
1808
1833
1908
1991
2034
2005
1936
1858
1807
1812
1875
1960
2030
2047
2000
1922
1845
1821
1870
1967
2054
2091
2037
1950
1850
1807
1837
1910
1997
2059
2041
1975
1883
1809
1808
1860
1937
2010
2019
1971
1904
1831
1807
1841
1910
2029
2073
2035
1962
1856
1812
1829
1898
1985
2057
2060
2007
1908
1834
1809
1857
1942
2019
2039
2009
1933
1846
1817
1859
1940
2019
2059
2032
1956
1865
1823
1856
1955
2065
2128
2129
2057
1967
1904
1894
1958
2066
2143
2160
2110
2000
1904
1871
1909
1984
2061
2087
2037
1942
1851
1797
1815
1890
1962
2032
2014
1944
1855
1789
1776
1829
1915
1997
2029
1984
1898
1819
1791
1823
1905
2000
2046
2031
1958
1868
1818
1840
1919
2014
2075
2078
2031
1977
1958
2004
2147
2342
2538
2669
2707
2683
2609
2543
2525
2530
2543
2503
2381
2209
2017
1866
1792
1801
1845
1888
1888
1829
1749
1690
1701
1772
1872
1943
1969
1923
1855
1776
1747
1791
1879
1967
2015
1997
1917
1823
1754
1750
1808
1891
1942
1943
1903
1837
1775
1769
1831
1925
2005
2027
1975
1893
1812
1770
1803
1889
1991
2054
2032
1959
1861
1791
1787
1855
1939
2007
2015
1968
1882
1814
1796
1844
1926
2019
2069
2038
1963
1891
1837
1860
1923
2001
2058
2034
1968
1891
1851
1877
1962
2068
2140
2145
2079
1979
1909
1902
1964
2058
2145
2189
2160
2083
1994
1957
2000
2095
2192
2256
2255
2177
2093
2023
2024
2089
2181
2270
2286
2235
2143
2055
2014
2055
2143
2224
2255
2205
2107
1997
1934
1940
2018
2119
2178
2160
2091
1979
1901
1879
1930
2007
2071
2071
2000
1904
1827
1797
1838
1922
2000
2032
1987
1910
1822
1776
1802
1879
1984
2031
2019
1952
1861
1793
1799
1869
1957
2026
2029
1968
1875
1805
1786
1840
1934
2030
2068
2035
1964
1863
1797
1805
1872
1970
2053
2053
1987
1899
1827
1810
1877
1971
2058
2064
2001
1919
1840
1792
1817
1888
1987
2037
2027
1965
1896
1850
1861
1918
1990
2046
2032
1968
1870
1795
1784
1847
1936
2017
2047
2011
1936
1854
1819
1857
1936
2031
2069
2023
1943
1856
1814
1840
1906
2000
2070
2073
2004
1904
1823
1812
1862
1954
2038
2074
2029
1954
1880
1855
1903
1985
2086
2139
2128
2064
1974
1919
1921
1971
2059
2118
2099
2022
1929
1851
1839
1879
1967
2043
2066
2014
1933
1855
1809
1829
1883
1965
2016
1999
1938
1860
1810
1821
1879
1968
2035
2042
1985
1899
1823
1799
1855
1946
2030
2054
2006
1935
1840
1799
1839
1922
2042
2125
2155
2159
2170
2229
2359
2530
2703
2800
2810
2718
2559
2409
2306
2270
2275
2256
2189
2046
1859
1726
1645
1655
1728
1831
1904
1904
1855
1785
1744
1759
1829
1920
1989
1995
1937
1856
1765
1746
1805
1893
1968
1993
1940
1862
1771
1739
1787
1893
1999
2046
2018
1936
1840
1775
1779
1853
1950
2025
2023
1963
1871
1795
1787
1855
1942
2025
2061
2004
1899
1803
1767
1811
1904
1991
2047
2036
1979
1895
1840
1839
1895
1984
2061
2070
2011
1929
1857
1849
1891
1968
2045
2093
2061
1984
1905
1877
1918
2000
2096
2154
2159
2096
2013
1955
1958
2031
2128
2206
2225
2174
2098
2029
2016
2069
2154
2235
2258
2226
2153
2067
2031
2073
2156
2242
2295
2269
2187
2096
2026
2014
2064
2121
2171
2176
2138
2068
1987
1954
1983
2055
2119
2141
2096
1984
1882
1824
1839
1905
1990
2036
2019
1940
1849
1783
1785
1843
1920
1987
1995
1936
1851
1776
1762
1818
1909
2003
2041
2001
1921
1837
1792
1819
1893
1965
2007
1987
1920
1840
1788
1812
1896
1989
2047
2061
2000
1901
1830
1794
1837
1920
2007
2064
2021
1939
1857
1813
1841
1907
1997
2059
2044
1969
1875
1811
1817
1879
1968
2038
2047
1984
1906
1818
1791
1836
1919
2000
2044
2009
1931
1841
1795
1811
1895
1995
2074
2081
2013
1917
1836
1818
1871
1955
2032
2055
2009
1936
1856
1825
1856
1930
2000
2055
2032
1969
1890
1851
1872
1941
2032
2107
2109
2041
1959
1878
1872
1923
2001
2075
2083
2015
1930
1839
1808
1851
1933
2013
2061
2036
1970
1877
1833
1859
1934
2013
2064
2038
1963
1869
1803
1797
1857
1951
2027
2039
1984
1895
1809
1779
1838
1923
2015
2062
2030
1953
1871
1807
1812
1875
1968
2036
2060
2015
1969
1968
2057
2224
2428
2608
2711
2705
2624
2502
2430
2417
2436
2458
2432
2325
2166
1969
1808
1751
1777
1854
1919
1915
1861
1786
1730
1722
1778
1862
1949
1974
1927
1847
1771
1743
1781
1855
1936
1973
1948
1877
1802
1750
1767
1829
1919
1979
1981
1919
1813
1741
1744
1819
1919
2002
2045
2008
1931
1843
1810
1841
1907
1971
2017
2002
1943
1855
1783
1792
1867
1953
2031
2042
1985
1904
1815
1805
1853
1936
2018
2064
2023
1943
1858
1818
1855
1933
2026
2074
2046
1982
1910
1859
1855
1914
2009
2103
2131
2090
2002
1931
1911
1967
2070
2154
2193
2173
2112
2037
2004
2035
2111
2195
2245
2243
2187
2114
2062
2061
2113
2193
2263
2272
2214
2115
2031
2005
2037
2125
2205
2230
2183
2097
2000
1945
1957
2030
2112
2144
2103
2016
1932
1855
1843
1895
1982
2057
2065
2002
1904
1822
1787
1808
1887
1978
2023
1995
1923
1842
1803
1825
1899
1957
2011
1999
1936
1831
1791
1792
1859
1951
2021
2026
1963
1872
1795
1783
1836
1917
2003
2041
2002
1933
1845
1793
1807
1867
1950
2002
2007
1967
1889
1825
1815
1867
1951
2017
2032
1979
1907
1854
1831
1866
1938
2023
2069
2035
1955
1857
1815
1840
1909
1995
2055
2043
1977
1891
1819
1806
1858
1950
2031
2047
1994
1907
1833
1806
1847
1927
2003
2034
1995
1925
1843
1785
1799
1883
1995
2070
2064
1985
1891
1825
1815
1875
1967
2045
2061
2011
1934
1851
1835
1886
1969
2067
2121
2096
2033
1950
1903
1923
1984
2061
2099
2090
2013
1919
1846
1827
1870
1942
2013
2033
1986
1902
1814
1776
1808
1891
1991
2043
2019
1947
1856
1808
1815
1884
1975
2038
2039
1968
1870
1787
1775
1837
1933
2023
2061
2010
1919
1837
1800
1847
1949
2069
2157
2193
2202
2208
2259
2371
2538
2699
2800
2794
2692
2541
2385
2287
2246
2235
2205
2127
1990
1842
1727
1679
1719
1809
1907
1958
1935
1870
1782
1735
1751
1820
1911
1969
1969
1915
1834
1767
1757
1803
1882
1954
1974
1941
1869
1799
1767
1814
1901
1987
2032
2002
1923
1823
1762
1776
1846
1936
2000
2011
1957
1861
1785
1786
1844
1936
2030
2074
2030
1950
1868
1833
1856
1917
1994
2047
2032
1969
1889
1837
1838
1902
1984
2045
2041
1984
1908
1853
1856
1904
1991
2071
2091
2035
1963
1889
1869
1919
2023
2125
2176
2160
2086
1987
1931
1942
2012
2127
2213
2240
2207
2133
2063
2027
2061
2119
2203
2250
2227
2162
2090
2062
2110
2188
2273
2309
2281
2198
2089
2000
1999
2059
2143
2210
2218
2158
2063
1968
1932
1965
2031
2103
2118
2047
1965
1877
1823
1840
1904
1983
2035
2032
1968
1890
1834
1837
1896
1968
2026
2025
1967
1884
1792
1759
1799
1881
1984
2038
2022
1949
1856
1808
1830
1903
1983
2033
2032
1973
1883
1821
1801
1856
1946
2027
2032
1990
1911
1829
1791
1837
1919
2002
2047
2017
1941
1853
1798
1819
1897
1987
2047
2035
1975
1886
1824
1821
1891
1989
2071
2077
2012
1917
1839
1820
1875
1953
2047
2082
2041
1958
1865
1808
1821
1890
1989
2061
2047
1979
1881
1808
1807
1869
1953
2027
2043
1997
1920
1853
1818
1859
1937
2015
2047
2011
1927
1846
1810
1847
1921
2009
2079
2084
2023
1939
1868
1860
1942
2055
2140
2165
2116
2023
1934
1885
1915
1985
2061
2094
2065
1983
1886
1818
1813
1884
1984
2054
2046
1977
1871
1783
1775
1835
1933
2019
2038
1995
1914
1826
1781
1810
1899
1997
2055
2036
1969
1882
1820
1814
1872
1961
2026
2032
1989
1909
1844
1829
1888
2007
2150
2247
2305
2331
2355
2416
2517
2653
2764
2793
2710
2559
2401
2267
2202
2175
2160
2113
2017
1897
1777
1679
1661
1722
1820
1916
1966
1937
1869
1787
1744
1766
1839
1926
1969
1951
1898
1835
1794
1806
1859
1937
1998
2007
1959
1870
1792
1776
1818
1899
1969
1998
1965
1894
1809
1763
1792
1872
1968
2022
1993
1927
1843
1788
1793
1865
1954
2021
2031
1970
1893
1814
1796
1851
1941
2015
2046
2002
1925
1853
1798
1840
1934
2042
2112
2091
1999
1908
1850
1853
1914
2007
2096
2107
2042
1947
1867
1872
1920
2002
2098
2137
2111
2038
1968
1942
1985
2075
2176
2235
2225
2156
2064
1996
2007
2086
2182
2253
2256
2207
2114
2035
2019
2071
2161
2246
2282
2248
2192
2103
2057
2061
2107
2160
2199
2167
2086
1985
1914
1904
1950
2032
2097
2101
2035
1945
1861
1827
1856
1921
2001
2041
2002
1929
1843
1793
1809
1873
1954
1995
1973
1910
1833
1777
1786
1855
1942
2032
2059
2002
1917
1829
1791
1827
1906
1997
2032
2007
1943
1870
1823
1840
1917
2001
2058
2030
1959
1868
1806
1810
1872
1953
2026
2047
1998
1913
1831
1789
1817
1903
2000
2064
2039
1969
1891
1827
1838
1916
2011
2071
2064
1989
1893
1811
1795
1849
1941
2033
2081
2035
1940
1849
1810
1841
1919
1994
2047
2022
1941
1859
1823
1842
1915
1995
2064
2062
1989
1899
1821
1803
1868
1958
2032
2042
1983
1907
1823
1794
1831
1904
2000
2056
2032
1955
1865
1811
1826
1900
1990
2067
2078
2006
1909
1829
1825
1894
2000
2106
2135
2096
2019
1953
1920
1942
2003
2078
2112
2086
2000
1904
1831
1822
1880
1969
2032
2028
1963
1867
1793
1777
1827
1921
2003
2029
1985
1913
1840
1808
1842
1923
2002
2046
2019
1950
1863
1808
1823
1889
1990
2059
2058
1990
1894
1810
1791
1839
1932
2032
2110
2141
2160
2183
2263
2413
2602
2757
2862
2860
2751
2583
2432
2352
2315
2306
2272
2171
2015
1849
1719
1671
1719
1810
1921
1953
1926
1855
1776
1741
1776
1847
1939
1991
1973
1905
1813
1751
1760
1817
1904
1977
1995
1951
1869
1808
1781
1817
1895
1968
2013
1967
1872
1774
1744
1791
1886
1979
2027
2002
1930
1838
1776
1786
1856
1945
2010
2019
1977
1895
1821
1804
1856
1947
2030
2059
2014
1939
1855
1813
1840
1920
2010
2066
2060
1989
1904
1843
1853
1922
2026
2106
2126
2065
1968
1882
1857
1911
2003
2097
2135
2112
2031
1947
1915
1949
2041
2162
2230
2209
2128
2021
1965
1971
2046
2151
2237
2256
2217
2138
2064
2032
2074
2153
2226
2253
2214
2121
2032
1989
2012
2079
2164
2208
2186
2112
2001
1922
1914
1974
2067
2125
2130
2077
1979
1884
1841
1861
1937
2017
2053
2014
1949
1858
1801
1813
1870
1962
2023
2021
1953
1875
1799
1805
1862
1957
2063
2064
1989
1890
1794
1765
1797
1874
1971
2026
2003
1936
1851
1789
1798
1869
1967
2032
2039
1979
1879
1827
1825
1888
1979
2055
2078
2025
1930
1843
1825
1871
1949
2032
2080
2053
1979
1882
1818
1835
1910
2000
2066
2059
1985
1883
1829
1817
1872
1978
2063
2091
2019
1904
1822
1791
1840
1947
2055
2107
2080
1999
1905
1839
1841
1907
2014
2093
2096
2030
1940
1857
1837
1877
1957
2037
2075
2033
1954
1858
1826
1865
1953
2043
2093
2063
1982
1889
1835
1853
1936
2035
2115
2113
2043
1959
1904
1902
1946
2013
2095
2111
2054
1968
1887
1845
1871
1938
2018
2078
2033
1954
1855
1792
1803
1872
1968
2040
2046
1984
1899
1828
1818
1872
1955
2031
2058
2000
1917
1834
1801
1833
1914
2000
2062
2042
1977
1877
1824
1834
1887
1979
2071
2115
2126
2103
2130
2215
2359
2529
2679
2731
2677
2547
2414
2322
2303
2322
2335
2294
2182
2003
1831
1702
1677
1744
1857
1936
1957
1910
1831
1762
1739
1792
1901
1990
2027
1975
1899
1809
1767
1792
1879
1986
2044
2030
1968
1873
1808
1792
1855
1955
2035
2042
1987
1899
1817
1808
1870
1958
2043
2065
2005
1910
1825
1783
1810
1885
1971
2026
2016
1958
1887
1828
1839
1904
1978
2045
2064
2013
1927
1853
1825
1872
1968
2069
2107
2066
1975
1879
1828
1862
1943
2041
2114
2113
2053
1968
1908
1907
1982
2083
2159
2176
2123
2031
1947
1926
1971
2064
2163
2224
2192
2127
2046
2001
2025
2108
2203
2268
2263
2197
2109
2023
2000
2054
2131
2205
2225
2185
2123
2057
2018
2047
2113
2189
2219
2176
2082
1968
1907
1923
1989
2074
2125
2101
2015
1931
1859
1856
1926
2031
2082
2085
2026
1927
1835
1797
1825
1903
1984
2021
1997
1919
1823
1766
1771
1842
1941
2014
2018
1963
1879
1806
1797
1850
1936
2014
2034
1993
1910
1837
1799
1845
1935
2019
2054
2010
1936
1857
1802
1810
1878
1967
2013
1997
1943
1872
1814
1805
1863
1952
2028
2070
2028
1966
1879
1856
1875
1947
2037
2111
2097
2021
1920
1851
1853
1915
1994
2061
2064
2003
1918
1834
1804
1841
1922
2013
2045
2009
1927
1831
1797
1836
1913
2007
2057
2023
1948
1872
1813
1834
1904
2000
2081
2080
2015
1918
1844
1815
1856
1968
2068
2096
2078
1991
1910
1867
1911
1989
2094
2139
2114
2032
1931
1883
1889
1951
2030
2075
2069
2006
1920
1837
1808
1841
1920
2000
2023
1987
1911
1829
1792
1830
1920
2021
2076
2067
1995
1903
1840
1841
1895
1977
2054
2067
2023
1936
1862
1840
1872
1947
2018
2045
2009
1935
1839
1787
1822
1911
2031
2129
2187
2208
2213
2241
2311
2416
2525
2599
2591
2506
2375
2254
2191
2171
2175
2171
2128
2012
1878
1762
1707
1725
1799
1914
1982
1978
1914
1835
1771
1778
1837
1920
1989
2002
1945
1863
1791
1773
1811
1891
1979
2017
1975
1903
1818
1776
1797
1870
1959
2011
1995
1930
1855
1797
1809
1875
1969
2055
2063
2001
1936
1840
1813
1855
1921
1995
2029
2000
1935
1856
1808
1813
1883
1979
2044
2039
1973
1891
1824
1835
1901
1990
2070
2086
2032
1941
1847
1812
1855
1947
2059
2112
2091
2011
1919
1863
1891
1970
2069
2135
2126
2071
1991
1941
1953
2021
2133
2224
2246
2192
2097
2017
1981
2009
2103
2198
2244
2203
2123
2037
1995
2019
2110
2193
2251
2235
2159
2057
1981
1957
1995
2082
2141
2140
2070
1981
1920
1903
1935
2000
2063
2096
2058
1973
1881
1827
1840
1911
1998
2045
2030
1969
1898
1838
1828
1867
1925
1986
2007
1969
1893
1814
1779
1813
1897
1981
2032
2015
1959
1870
1804
1808
1873
1967
2015
2005
1950
1870
1799
1793
1856
1941
2010
2026
1970
1899
1839
1811
1858
1936
2013
2064
2019
1949
1868
1813
1851
1927
2012
2066
2071
2003
1907
1820
1805
1850
1941
2032
2055
1999
1910
1840
1825
1873
1941
2032
2081
2071
1993
1891
1813
1814
1867
1942
2003
2031
2007
1955
1883
1861
1904
1977
2058
2075
2032
1943
1858
1824
1861
1937
2032
2085
2064
1982
1885
1817
1827
1895
1984
2058
2074
2027
1946
1872
1865
1929
2018
2097
2125
2078
1975
1886
1845
1871
1942
2023
2065
2044
1968
1874
1819
1822
1888
1979
2047
2065
2003
1920
1840
1820
1869
1962
2017
2047
2013
1943
1857
1811
1843
1923
2006
2064
2045
1971
1872
1809
1821
1909
2003
2064
2045
1979
1899
1840
1870
2000
2192
2375
2494
2529
2495
2423
2374
2362
2384
2427
2432
2358
2230
2074
1936
1859
1862
1916
1968
1971
1922
1841
1759
1747
1815
1910
1997
2017
1968
1871
1786
1729
1765
1851
1963
2007
2000
1937
1847
1787
1792
1856
1943
2007
2015
1963
1875
1806
1778
1829
1925
2019
2066
2033
1968
1884
1830
1834
1904
2010
2093
2091
2021
1922
1830
1811
1869
1951
2022
2047
2005
1927
1850
1821
1859
1938
2032
2082
2065
1983
1886
1823
1834
1904
1979
2030
2019
1962
1872
1821
1831
1924
2053
2144
2166
2115
2028
1941
1907
1936
2011
2098
2157
2144
2089
2001
1958
1979
2064
2161
2224
2211
2137
2058
1986
1997
2064
2149
2225
2254
2209
2122
2039
1997
2029
2099
2162
2180
2127
2023
1922
1873
1896
1968
2079
2148
2143
2069
1959
1874
1859
1911
1983
2054
2066
2015
1926
1839
1794
1823
1897
1971
2017
2001
1942
1861
1813
1824
1878
1958
2015
2016
1966
1872
1801
1802
1872
1954
2018
2029
1982
1887
1803
1770
1807
1888
1969
2029
2027
1966
1878
1829
1834
1899
1989
2079
2110
2047
1942
1856
1828
1872
1967
2055
2075
2013
1933
1846
1815
1856
1937
2016
2065
2044
1967
1874
1808
1819
1889
1982
2047
2062
1999
1906
1831
1808
1872
1961
2047
2066
2031
1958
1893
1857
1888
1945
2023
2065
2046
1982
1890
1840
1858
1925
2006
2063
2063
2000
1906
1825
1805
1850
1943
2047
2093
2035
1942
1851
1807
1846
1947
2060
2123
2108
2035
1951
1902
1910
1967
2043
2097
2087
1999
1904
1844
1845
1904
1997
2095
2108
2039
1941
1851
1802
1827
1904
1991
2043
2032
1974
1883
1815
1829
1893
1979
2045
2055
1988
1890
1807
1783
1837
1938
2007
2058
2032
1955
1849
1818
1834
1904
1998
2064
2082
2047
2001
1998
2075
2207
2369
2500
2549
2505
2398
2282
2218
2233
2289
2332
2315
2211
2046
1887
1790
1780
1838
1925
1982
1978
1920
1840
1786
1793
1855
1950
2022
2023
1953
1853
1776
1745
1798
1904
2005
2063
2026
1938
1847
1798
1814
1891
1981
2041
2039
1975
1868
1787
1775
1842
1949
2037
2064
2003
1934
1872
1840
1870
1947
2039
2084
2045
1956
1856
1802
1826
1905
2000
2061
2047
1983
1901
1839
1845
1906
1999
2080
2096
2034
1963
1893
1870
1899
1955
2015
2047
2021
1962
1875
1833
1861
1937
2038
2112
2119
2061
1979
1923
1922
1989
2087
2164
2191
2157
2074
2011
1958
1990
2066
2163
2225
2209
2143
2055
1993
1993
2045
2138
2210
2205
2157
2066
1974
1946
1987
2064
2158
2175
2123
2019
1907
1867
1906
1993
2081
2117
2082
1989
1895
1827
1833
1905
2005
2068
2064
1990
1885
1807
1793
1850
1940
2015
2021
1968
1878
1806
1776
1819
1904
2001
2057
2011
1934
1833
1773
1776
1840
1939
2015
2009
1941
1843
1788
1799
1871
1968
2055
2087
2047
1965
1875
1827
1855
1936
2032
2087
2067
1992
1919
1854
1841
1895
1984
2046
2060
1996
1907
1821
1795
1846
1938
2025
2066
2026
1939
1851
1809
1835
1904
2000
2079
2064
1987
1905
1851
1853
1914
2017
2078
2086
2026
1939
1853
1829
1863
1938
2021
2070
2032
1955
1869
1822
1841
1904
1991
2047
2060
2000
1915
1854
1851
1906
1995
2057
2066
2013
1938
1879
1875
1936
2022
2101
2128
2085
1999
1917
1868
1881
1943
2031
2095
2080
2000
1904
1830
1825
1876
1968
2047
2069
2001
1904
1810
1776
1822
1919
2011
2045
2017
1946
1859
1821
1858
1936
2013
2064
2033
1968
1872
1807
1808
1872
1970
2061
2081
2032
1947
1862
1838
1869
1957
2071
2169
2210
2207
2210
2231
2301
2386
2479
2525
2487
2375
2237
2122
2064
2065
2095
2101
2059
1956
1841
1749
1718
1766
1855
1939
1978
1955
1898
1832
1790
1818
1895
1999
2045
2030
1959
1867
1793
1783
1840
1941
2035
2064
1985
1887
1797
1758
1793
1883
1989
2033
2000
1921
1840
1785
1809
1900
2011
2091
2086
2013
1917
1841
1808
1840
1917
1991
2019
1984
1925
1855
1833
1883
1978
2075
2115
2081
1979
1865
1801
1809
1889
1985
2067
2090
2033
1943
1877
1863
1904
1985
2059
2079
2039
1975
1916
1875
1914
1986
2089
2138
2137
2094
2010
1954
1973
2032
2124
2183
2188
2145
2065
2000
1994
2044
2143
2219
2250
2201
2112
2003
1951
1985
2075
2186
2246
2220
2128
2022
1967
1965
2027
2106
2159
2155
2096
2000
1917
1885
1913
1974
2046
2071
2019
1925
1833
1802
1837
1904
1995
2026
1993
1919
1829
1776
1791
1857
1954
2018
2030
1971
1873
1769
1735
1805
1930
2015
2059
2017
1931
1829
1794
1825
1902
1984
2032
2031
1979
1897
1829
1827
1873
1947
2006
2013
1953
1872
1799
1782
1826
1904
1987
2029
1995
1917
1836
1791
1825
1907
2019
2081
2065
1995
1910
1849
1849
1903
1984
2042
2043
1978
1884
1805
1791
1843
1938
2037
2087
2043
1935
1861
1813
1840
1897
1984
2029
2013
1942
1859
1783
1775
1847
1963
2059
2081
2019
1936
1847
1808
1850
1936
2034
2092
2067
1992
1920
1872
1898
1971
2064
2103
2071
2003
1936
1897
1904
1960
2039
2103
2099
2031
1935
1840
1809
1854
1945
2039
2073
2023
1936
1837
1777
1795
1867
1957
2034
2034
1973
1889
1813
1806
1865
1967
2055
2070
2012
1924
1836
1802
1830
1911
2002
2047
2019
1936
1855
1810
1839
1905
1999
2064
2057
2003
1946
1923
1989
2143
2329
2502
2609
2608
2531
2432
2367
2365
2391
2404
2368
2262
2114
1940
1807
1761
1793
1871
1932
1939
1883
1811
1749
