2167
2166
2115
2044
1990
1967
1987
2033
2097
2119
2105
2055
1990
1961
1991
2064
2137
2174
2162
2093
1986
1927
1936
2000
2090
2151
2158
2106
2022
1966
1958
1995
2061
2128
2161
2138
2069
1990
1957
1970
2038
2148
2236
2287
2304
2315
2347
2400
2477
2559
2625
2625
2546
2429
2325
2257
2236
2238
2239
2206
2131
2029
1943
1906
1932
1988
2064
2099
2087
2017
1937
1901
1910
1984
2075
2134
2160
2112
2035
1984
1982
2032
2114
2166
2166
2143
2096
2034
1986
1994
2047
2112
2143
2132
2079
2023
1991
2015
2076
2155
2189
2176
2128
2073
2034
2045
2099
2172
2249
2294
2270
2203
2138
2110
2129
2195
2251
2301
2305
2249
2186
2167
2185
2213
2249
2275
2281
2238
2169
2102
2077
2146
2222
2268
2281
2242
2181
2111
2079
2096
2134
2192
2240
2240
2208
2147
2101
2093
2126
2177
2224
2225
2167
2093
2032
2043
2091
2153
2195
2192
2148
2077
2013
1998
2047
2139
2227
2263
2234
2157
2063
2002
2027
2107
2187
2245
2252
2199
2124
2064
2054
2107
2179
2241
2263
2229
2157
2082
2031
2047
2094
2143
2170
2138
2083
2015
1979
1995
2055
2112
2141
2130
2077
1999
1967
1984
2032
2096
2153
2167
2126
2039
1975
1949
1995
2090
2175
2214
2187
2105
2007
1959
1971
2031
2087
2113
2099
2046
1994
1972
2018
2140
2294
2434
2509
2512
2480
2447
2427
2439
2483
2522
2496
2410
2273
2135
2031
1995
1994
2054
2081
2064
2003
1951
1903
1902
1950
2015
2079
2100
2064
2000
1961
1942
1987
2060
2109
2122
2095
2035
1984
1958
1988
2045
2113
2130
2113
2071
2007
1954
1954
2006
2084
2128
2128
2102
2063
2020
2023
2068
2138
2206
2237
2223
2151
2071
2047
2068
2114
2183
2234
2224
2174
2096
2032
2043
2112
2199
2266
2283
2257
2206
2152
2122
2141
2192
2251
2271
2238
2165
2095
2055
2083
2131
2197
2247
2238
2174
2075
1996
1979
2018
2112
2192
2210
2179
2114
2060
2034
2071
2128
2176
2193
2166
2080
2014
1978
2014
2095
2174
2224
2214
2166
2096
2034
2032
2080
2139
2182
2190
2161
2110
2058
2037
2091
2170
2228
2252
2224
2162
2087
2045
2064
2106
2162
2198
2192
2123
2032
1972
1968
2017
2095
2147
2158
2113
2033
1965
1916
1936
2012
2089
2122
2110
2045
2011
1986
2027
2103
2166
2192
2162
2099
2042
2000
2017
2091
2158
2161
2119
2058
1971
1911
1907
1966
2070
2190
2288
2338
2352
2352
2379
2449
2542
2623
2658
2633
2545
2445
2345
2290
2285
2299
2269
2181
2077
1982
1921
1915
1966
2038
2103
2133
2107
2039
1969
1947
1977
2045
2112
2144
2128
2066
1989
1953
1963
2010
2079
2119
2125
2106
2063
2015
2026
2096
2173
2223
2217
2160
2074
1991
1967
2018
2106
2183
2234
2228
2186
2123
2089
2103
2155
2224
2269
2263
2223
2176
2151
2157
2199
2270
2330
2352
2317
2245
2170
2151
2183
2253
2315
2338
2301
2231
2160
2113
2127
2181
2256
2301
2288
2226
2158
2091
2064
2096
2134
2181
2223
2210
2175
2130
2114
2128
2177
2225
2246
2209
2141
2076
2027
2034
2095
2167
2226
2240
2203
2144
2102
2111
2143
2192
2233
2239
2191
2133
2070
2039
2080
2156
2234
2255
2218
2160
2102
2073
2096
2157
2227
2273
2277
2249
2163
2094
2058
2071
2106
2146
2148
2106
2032
1973
1963
2002
2071
2128
2152
2117
2064
2006
1984
2021
2096
2174
2198
2167
2103
2017
1968
1979
2041
2119
2161
2173
2128
2059
1991
1972
2010
2075
2115
2121
2080
1999
1932
1932
2034
2195
2370
2505
2592
2605
2559
2542
2544
2559
2606
2601
2538
2421
2270
2112
2004
1968
1991
2032
2063
2031
1973
1923
1907
1936
2002
2081
2128
2118
2053
1985
1946
1962
2013
2071
2112
2109
2064
1989
1920
1901
1957
2062
2141
2165
2131
2069
2000
1978
2002
2079
2160
2199
2182
2128
2055
1995
2007
2080
2160
2217
2224
2192
2144
2096
2097
2144
2224
2295
2323
2278
2207
2139
2113
2147
2224
2309
2357
2344
2277
2206
2160
2170
2218
2283
2339
2327
2270
2205
2147
2142
2182
2227
2257
2265
2227
2157
2086
2046
2088
2167
2250
2274
2244
2173
2101
2065
2079
2128
2183
2226
2221
2176
2119
2086
2081
2112
2179
2240
2250
2216
2158
2092
2047
2070
2127
2176
2185
2154
2106
2064
2055
2082
2143
2219
2253
2239
2188
2137
2106
2112
2154
2217
2251
2246
2192
2113
2034
1991
2004
2065
2128
2155
2127
2077
2000
1966
1972
2026
2097
2140
2142
2100
2021
1945
1918
1954
2016
2084
2106
2068
2000
1966
1967
2013
2090
2160
2197
2176
2112
2010
1936
1917
1943
1995
2059
2087
2076
2078
2124
2229
2390
2559
2711
2771
2747
2663
2559
2503
2485
2480
2454
2398
2289
2143
1991
1890
1855
1889
1951
1997
2000
1966
1911
1881
1895
1949
2030
2103
2095
2032
1967
1917
1907
1947
2015
2077
2101
2086
2032
1983
1958
1969
2015
2096
2133
2130
2093
2032
1986
1988
2037
2115
2176
2177
2145
2082
2023
2001
2053
2129
2195
2231
2215
2171
2125
2112
2142
2197
2264
2318
2315
2263
2209
2170
2177
2225
2291
2339
2324
2288
2241
2207
2191
2214
2263
2313
2330
2301
2228
2160
2123
2140
2192
2242
2266
2251
2214
2151
2091
2074
2112
2182
2243
2239
2185
2116
2064
2033
2078
2151
2224
2239
2206
2160
2109
2070
2083
2132
2209
2254
2226
2155
2071
2017
2026
2096
2159
2224
2233
2191
2131
2082
2069
2103
2171
2238
2267
2242
2185
2117
2077
2095
2132
2183
2199
2177
2119
2055
1984
1971
2015
2081
2125
2119
2064
1989
1919
1901
1950
2027
2107
2143
2115
2055
1995
1968
1979
2033
2098
2127
2111
2060
1997
1962
1981
2038
2107
2146
2124
2039
1930
1836
1789
1831
1949
2094
2224
2320
2371
2412
2506
2640
2769
2878
2923
2869
2757
2624
2501
2416
2357
2301
2225
2114
1974
1851
1761
1762
1818
1910
1987
2028
2013
1967
1909
1885
1915
1968
2038
2068
2036
1984
1935
1901
1915
1973
2043
2096
2077
2005
1942
1913
1925
1987
2057
2106
2106
2038
1971
1936
1955
2021
2099
2164
2192
2173
2121
2038
1994
2010
2096
2189
2255
2270
2224
2151
2097
2094
2156
2243
2313
2331
2308
2255
2199
2176
2192
2253
2320
2354
2338
2286
2218
2171
2174
2217
2275
2303
2286
2231
2160
2096
2081
2121
2186
2239
2244
2205
2147
2085
2062
2100
2171
2241
2268
2247
2205
2134
2073
2062
2109
2174
2226
2222
2166
2096
2032
2023
2053
2121
2203
2224
2181
2112
2054
2032
2077
2143
2210
2239
2234
2195
2137
2086
2074
2098
2161
2207
2213
2175
2117
2065
2068
2099
2130
2169
2173
2112
2046
1996
1985
2017
2087
2147
2161
2124
2060
1976
1936
1951
1994
2066
2102
2077
2016
1949
1882
1869
1915
2003
2093
2128
2114
2061
1991
1955
1984
2046
2093
2085
2018
1927
1841
1810
1871
2006
2197
2353
2448
2497
2555
2640
2730
2813
2867
2882
2835
2719
2555
2400
2275
2189
2147
2127
2064
1981
1885
1806
1765
1792
1855
1927
1982
1989
1956
1904
1872
1893
1939
2017
2083
2086
2014
1936
1868
1850
1892
1952
2029
2081
2071
2031
1973
1959
1974
2030
2093
2118
2095
2030
1961
1915
1923
1984
2055
2096
2109
2096
2064
2027
2026
2071
2144
2230
2274
2256
2205
2143
2122
2159
2223
2288
2314
2295
2262
2224
2190
2195
2236
2284
2326
2323
2285
2222
2160
2134
2173
2230
2279
2287
2243
2170
2096
2066
2097
2147
2185
2198
2174
2128
2080
2054
2071
2122
2181
2224
2221
2177
2113
2064
2039
2076
2133
2197
2224
2199
2135
2067
2042
2055
2094
2146
2177
2165
2112
2059
2014
2029
2090
2165
2223
2214
2165
2099
2042
2047
2098
2165
2220
2219
2176
2123
2074
2039
2064
2113
2176
2205
2171
2093
1991
1936
1943
1983
2037
2083
2088
2046
1985
1931
1933
1979
2062
2107
2103
2064
2023
1973
1949
1971
2033
2106
2128
2106
2043
1977
1936
1953
2001
2063
2078
2038
1975
1904
1851
1882
2002
2190
2385
2522
2618
2672
2691
2709
2751
2799
2827
2799
2692
2535
2368
2225
2138
2096
2068
2037
1984
1917
1845
1805
1812
1867
1935
1999
2015
1978
1919
1869
1855
1891
1953
2010
2028
2005
1945
1885
1856
1889
1961
2046
2096
2096
2060
1993
1949
1954
2005
2096
2159
2187
2154
2064
1984
1952
1985
2054
2123
2151
2128
2085
2038
2035
2095
2157
2225
2275
2276
2229
2167
2137
2145
2194
2277
2352
2384
2354
2278
2191
2158
2191
2256
2321
2353
2324
2255
2176
2135
2160
2217
2285
2318
2301
2237
2147
2096
2095
2133
2191
2243
2246
2201
2135
2086
2081
2125
2193
2250
2263
2231
2169
2096
2059
2075
2126
2198
2247
2226
2176
2096
2045
2060
2094
2161
2215
2224
2183
2114
2055
2042
2093
2162
2227
2251
2229
2177
2131
2106
2115
2160
2214
2245
2240
2189
2128
2074
2055
2085
2138
2179
2155
2102
2035
1983
1959
1984
2038
2109
2145
2129
2073
2018
1992
2005
2064
2127
2159
2135
2085
2014
1979
1987
2042
2117
2170
2181
2141
2067
2000
1971
1984
2007
2036
2047
2017
1970
1950
1987
2110
2298
2511
2717
2832
2874
2864
2839
2832
2826
2816
2782
2690
2530
2343
2166
2046
1990
1981
1983
1977
1950
1904
1867
1863
1904
1982
2063
2101
2094
2032
1966
1906
1904
1963
2046
2106
2103
2066
2002
1958
1974
2043
2126
2191
2211
2160
2083
2016
1998
2037
2101
2163
2207
2199
2155
2082
2023
2043
2113
2192
2256
2256
2223
2175
2138
2142
2198
2275
2343
2371
2342
2288
2231
2209
2238
2291
2356
2406
2423
2387
2320
2272
2274
2315
2375
2417
2410
2352
2288
2230
2219
2257
2317
2378
2403
2363
2291
2224
2191
2213
2267
2320
2352
2336
2288
2224
2178
2190
2229
2295
2340
2345
2307
2251
2199
2194
2234
2288
2323
2323
2273
2199
2133
2112
2160
2240
2314
2346
2319
2270
2208
2165
2176
2241
2311
2371
2383
2346
2291
2251
2252
2286
2343
2387
2394
2353
2285
2217
2177
2189
2238
2299
2323
2287
2224
2160
2111
2112
2161
2202
2240
2240
2203
2143
2107
2115
2159
2227
2277
2285
2240
2166
2101
2093
2128
2206
2282
2321
2301
2242
2180
2129
2117
2149
2199
2224
2205
2145
2093
2089
2163
2330
2487
2642
2751
2799
2800
2763
2743
2745
2766
2771
2739
2625
2455
2290
2175
2123
2131
2163
2179
2161
2118
2065
2032
2033
2086
2173
2234
2242
2203
2144
2096
2086
2116
2177
2246
2287
2271
2197
2111
2064
2096
2176
2273
2333
2329
2273
2203
2159
2161
2213
2288
2339
2334
2273
2205
2150
2141
2190
2263
2342
2368
2347
2295
2247
2224
2229
2289
2371
2423
2417
2368
2320
2289
2304
2352
2416
2479
2489
2454
2383
2308
2282
2302
2355
2416
2449
2426
2352
2287
2240
2247
2288
2331
2352
2317
2250
2189
2163
2180
2235
2295
2341
2345
2295
2235
2181
2176
2192
2239
2288
2299
2267
2208
2147
2114
2142
2198
2262
2290
2274
2224
2155
2119
2128
2185
2247
2288
2289
2263
2186
2115
2096
2119
2186
2256
2289
2265
2215
2163
2140
2166
2203
2235
2242
2219
2159
2086
2064
2082
2112
2157
2191
2173
2114
2029
1954
1936
1973
2053
2128
2150
2126
2074
2011
1981
2013
2078
2125
2151
2139
2093
2012
1963
1958
2014
2115
2177
2165
2113
2025
1953
1914
1936
1984
2011
2014
2000
2000
2018
2095
2205
2346
2483
2578
2582
2522
2449
2387
2375
2390
2396
2369
2286
2147
1984
1869
1812
1834
1891
1951
1950
1925
1859
1814
1793
1815
1878
1949
1982
1969
1920
1874
1850
1859
1891
1968
2015
2020
1965
1899
1847
1842
1883
1945
1983
1995
1966
1917
1865
1850
1885
1943
2009
2046
2021
1961
1890
1854
1862
1903
1961
2013
2032
2000
1951
1904
1921
1968
2030
2097
2127
2096
2035
1986
1966
2003
2070
2135
2160
2127
2047
1977
1927
1919
1950
2014
2062
2083
2032
1974
1922
1901
1925
1983
2000
2000
1966
1920
1883
1854
1875
1926
1984
2015
1978
1920
1847
1814
1833
1884
1952
1989
1978
1914
1837
1791
1794
1847
1922
1986
2015
1969
1885
1822
1795
1830
1886
1948
1981
1967
1896
1822
1788
1810
1862
1934
1983
1970
1921
1835
1774
1775
1826
1892
1937
1947
1899
1815
1739
1719
1746
1815
1890
1926
1895
1830
1771
1713
1701
1728
1781
1834
1831
1781
1716
1675
1680
1730
1808
1870
1878
1843
1776
1719
1703
1736
1791
1851
1863
1823
1750
1680
1635
1648
1710
1787
1856
1899
1936
1973
2029
2119
2218
2283
2320
2304
2238
2149
2061
1986
1959
1953
1951
1916
1831
1738
1650
1601
1617
1669
1727
1757
1751
1713
1662
1623
1648
1714
1786
1839
1844
1798
1722
1654
1648
1703
1783
1858
1890
1853
1780
1709
1679
1699
1762
1841
1867
1858
1811
1750
1713
1725
1769
1842
1902
1904
1872
1815
1760
1748
1797
1867
1919
1942
1921
1881
1837
1833
1863
1931
1998
2043
2033
1987
1930
1885
1893
1933
1987
2022
2020
1984
1929
1876
1866
1887
1936
1989
2007
1983
1919
1850
1827
1840
1901
1946
1981
1957
1886
1808
1757
1749
1789
1868
1922
1950
1923
1881
1823
1792
1808
1873
1934
1968
1947
1894
1810
1781
1814
1879
1953
1997
1984
1947
1891
1855
1872
1918
1971
2000
1995
1958
1905
1853
1854
1894
1968
2031
2046
2006
1933
1853
1822
1854
1911
1965
1985
1952
1883
1824
1783
1790
1842
1917
1952
1948
1904
1839
1792
1806
1861
1936
1978
1995
1968
1904
1842
1835
1866
1921
1984
2010
1995
1947
1874
1835
1856
1911
1981
2015
1995
1935
1872
1851
1887
1983
2115
2239
2320
2356
2364
2333
2317
2326
2367
2406
2421
2352
2236
2112
2005
1967
1968
1999
2017
1990
1918
1841
1786
1808
1863
1940
2005
2030
2003
1952
1881
1856
1888
1954
2041
2087
2068
2003
1936
1911
1938
1983
2034
2067
2043
1994
1941
1919
1927
1980
2043
2097
2097
2045
1990
1955
1947
1984
2064
2126
2155
2143
2095
2031
2012
2047
2112
2178
2222
2217
2160
2103
2067
2085
2141
2229
2292
2290
2243
2150
2083
2064
2103
2166
2223
2227
2199
2154
2097
2047
2063
2109
2176
2210
2192
2126
2054
1998
1989
2033
2102
2148
2160
2123
2054
1975
1951
2000
2083
2159
2187
2159
2110
2039
2013
2036
2101
2160
2210
2195
2133
2062
2001
2006
2069
2146
2197
2219
2181
2112
2032
2015
2058
2119
2186
2213
2181
2127
2071
2060
2085
2128
2189
2203
2177
2113
2039
1994
1999
2053
2123
2175
2163
2118
2053
1998
1978
2002
2055
2106
2127
2112
2067
2001
1973
1997
2047
2106
2156
2147
2106
2039
2006
2017
2063
2122
2173
2181
2149
2080
2011
1971
1983
2045
2106
2150
2157
2151
2157
2217
2320
2441
2559
2635
2639
2589
2496
2432
2416
2415
2421
2399
2326
2224
2101
1978
1906
1902
1951
2033
2087
2076
2027
1983
1974
2005
2075
2129
2160
2141
2085
2032
1984
1990
2055
2133
2192
2193
2149
2085
2039
2032
2081
2142
2206
2235
2202
2138
2065
2021
2039
2096
2169
2213
2199
2144
2075
2039
2074
2141
2218
2274
2288
2246
2185
2142
2151
2192
2261
2330
2366
2355
2310
2256
2226
2255
2306
2377
2419
2397
2331
2255
2203
2202
2231
2291
2342
2323
2267
2192
2117
2093
2128
2195
2256
2259
2198
2124
2085
2096
2142
2198
2262
2288
2276
2215
2137
2083
2078
2127
2206
2267
2274
2229
2167
2121
2106
2131
2183
2240
2254
2230
2175
2116
2087
2115
2177
2250
2293
2276
2239
2182
2143
2133
2156
2202
2245
2253
2213
2130
2071
2077
2133
2198
2242
2234
2181
2113
2059
2034
2069
2126
2176
2207
2183
2123
2055
1989
1999
2070
2155
2205
2192
2139
2059
2000
1995
2043
2110
2163
2176
2141
2076
2023
2010
2053
2103
2158
2199
2182
2128
2032
1963
1945
1974
2033
2097
2129
2146
2160
2196
2288
2429
2559
2674
2703
2666
2583
2491
2427
2394
2397
2383
2317
2201
2080
1981
1924
1934
1984
2062
2118
2096
2046
1983
1935
1935
1967
2028
2106
2127
2096
2042
1989
1970
1995
2044
2121
2158
2128
2084
2015
1985
2015
2066
2138
2188
2192
2161
2094
2038
2034
2071
2138
2209
2242
2211
2147
2081
2058
2083
2135
2209
2240
2219
2163
2113
2095
2125
2194
2271
2322
2327
2283
2223
2190
2192
2247
2306
2360
2358
2305
2224
2171
2166
2207
2262
2321
2323
2265
2186
2112
2081
2099
2151
2217
2256
2246
2195
2127
2071
2065
2101
2172
2224
2224
2162
2097
2042
2031
2084
2141
2205
2225
2192
2141
2086
2047
2077
2143
2204
2244
2233
2190
2135
2100
2107
2140
2194
2240
2243
2198
2139
2091
2074
2114
2180
2241
2258
2233
2176
2117
2086
2112
2159
2219
2239
2208
2129
2054
2000
2005
2074
2143
2192
2192
2143
2070
2002
1974
2002
2075
2151
2190
2157
2094
2017
1984
2001
2045
2122
2155
2127
2065
1999
1968
1978
2028
2122
2177
2192
2160
2096
2021
1974
1981
2019
2064
2070
2041
2004
1996
2043
2172
2342
2526
2672
2739
2736
2692
2640
2611
2608
2614
2599
2519
2402
2252
2112
2016
1974
1995
2038
2069
2029
1959
1886
1872
1906
1970
2047
2086
2076
2035
1977
1935
1943
2006
2098
2154
2128
2073
1990
1920
1919
1975
2054
2127
2149
2118
2074
2001
1968
1984
2039
2113
2160
2143
2090
2023
1986
2003
2071
2133
2176
2173
2128
2090
2055
2064
2112
2189
2256
2288
2256
2202
2157
2144
2185
2258
2331
2357
2323
2265
2182
2137
2148
2192
2256
2291
2285
2235
2164
2101
2068
2077
2125
2185
2223
2201
2144
2064
2047
2065
2114
2167
2209
2202
2161
2107
2079
2080
2128
2174
2201
2187
2140
2074
2026
2031
2073
2134
2187
2192
2155
2095
2033
2011
2044
2113
2187
2224
2198
2125
2032
1986
2002
2065
2141
2177
2173
2115
2053
2007
2015
2067
2127
2177
2192
2163
2119
2077
2064
2101
2161
2210
2210
2161
2081
1981
1922
1931
1977
2037
2094
2089
2046
1990
1941
1940
1991
2064
2114
2112
2061
1972
1913
1889
1933
2018
2110
2151
2112
2047
1983
1946
1962
2015
2086
2127
2112
2039
1961
1884
1863
1900
1968
2033
2091
2117
2160
2232
2340
2502
2683
2823
2896
2879
2779
2637
2512
2450
2417
2385
2323
2219
2086
1939
1831
1791
1823
1893
1962
1989
1968
1913
1863
1859
1907
1973
2032
2067
2032
1982
1926
1903
1935
1987
2058
2096
2079
2015
1940
1898
1919
1981
2069
2128
2128
2070
1998
1951
1957
2000
2069
2131
2157
2128
2075
1994
1969
2002
2073
2137
2194
2195
2150
2097
2078
2096
2160
2240
2304
2311
2274
2212
2163
2169
2222
2289
2348
2359
2320
2250
2162
2126
2147
2198
2267
2304
2287
2226
2151
2099
2092
2128
2192
2240
2239
2197
2128
2067
2057
2086
2144
2206
2225
2191
2127
2064
2031
2047
2114
2189
2224
2202
2132
2071
2047
2065
2108
2160
2195
2189
2141
2071
2007
2000
2035
2109
2157
2176
2147
2091
2018
1985
2006
2085
2159
2193
2179
2131
2073
2026
2033
2099
2186
2241
2243
2191
2112
2027
2006
2037
2112
2183
2203
2157
2082
2003
1971
1993
2041
2103
2112
2083
2015
1951
1905
1910
1963
2028
2085
2096
2061
1984
1936
1927
1961
2017
2091
2117
2091
2017
1961
1935
1952
2006
2063
2091
2067
2000
1910
1856
1858
1904
1995
2087
2163
2224
2288
2352
2468
2631
2778
2880
2883
2802
2681
2535
2430
2373
2344
2313
2257
2160
2014
1887
1808
1801
1838
1895
1943
1937
1906
1855
1805
1795
1847
1924
1998
2016
1982
1936
1885
1867
1883
1934
1996
2030
2014
1967
1904
1863
1890
1952
2039
2097
2079
2021
1951
1904
1902
1945
2000
2026
2045
2031
2000
1981
1983
2032
2110
2177
2202
2181
2128
2071
2047
2090
2171
2256
2304
2294
2245
2188
2143
2145
2199
2275
2327
2337
2297
2224
2161
2134
2166
2231
2290
2304
2260
2189
2112
2070
2071
2112
2176
2224
2219
2159
2090
2043
2047
2096
2155
2192
2198
2163
2107
2055
2036
2067
2128
2192
2212
2178
2125
2065
2019
2019
2069
2123
2158
2141
2092
2015
1978
1990
2043
2112
2173
2181
2153
2096
2031
2000
2032
2095
2138
2147
2117
2064
2015
1995
2025
2086
2159
2207
2199
2157
2098
2063
2066
2112
2175
2205
2192
2140
2063
1987
1962
1978
2027
2090
2101
2064
1995
1920
1909
1945
2005
2078
2112
2106
2058
1985
1936
1933
1987
2064
2107
2096
2027
1955
1917
1916
1950
2021
2096
2130
2101
2031
1967
1905
1894
1921
1977
2029
2047
2064
2096
2173
2320
2512
2725
2889
2958
2919
2805
2694
2613
2558
2527
2489
2406
2263
2104
1948
1851
1838
1872
1927
1966
1952
1891
1835
1808
1823
1877
1946
2013
2022
1983
1914
1859
1854
1902
1968
2023
2063
2034
1982
1914
1882
1916
1993
2075
2117
2103
2057
1978
1921
1927
1974
2047
2112
2128
2080
2002
1946
1936
1995
2085
2160
2190
2168
2119
2063
2037
2091
2172
2254
2295
2282
2225
2164
2128
2144
2209
2291
2352
2359
2306
2225
2162
2143
2174
2236
2286
2289
2243
2178
2095
2064
2091
2148
2206
2245
2226
2169
2098
2038
2045
2090
2143
2190
2195
2160
2096
2047
2039
2081
2145
2199
2212
2182
2112
2033
1985
1991
2057
2131
2183
2162
2113
2037
1984
1992
2061
2117
2160
2144
2086
2011
1968
1969
2026
2095
2150
2167
2134
2094
2042
2032
2081
2128
2164
2182
2160
2112
2042
2012
2058
2128
2190
2198
2141
2055
1969
1914
1914
1967
2027
2075
2069
2025
1971
1935
1928
1965
2023
2080
2101
2090
2032
1974
1946
1957
2000
2064
2109
2110
2074
2023
1980
1962
1999
2064
2121
2134
2103
2026
1941
1895
1902
1938
1987
2016
2009
1995
2014
2077
2206
2373
2540
2674
2724
2690
2619
2523
2471
2454
2446
2417
2343
2224
2095
1966
1898
1895
1920
1958
1968
1939
1911
1889
1863
1861
1893
1957
2003
2010
1989
1942
1915
1938
1984
2040
2091
2093
2044
1973
1903
1894
1953
2032
2103
2124
2094
2031
1969
1939
1968
2018
2079
2109
2097
2064
1999
1967
1999
2069
2148
2223
2228
2182
2111
2047
2032
2089
2163
2239
2262
2241
2192
2142
2127
2160
2235
2319
2352
2327
2273
2192
2138
2139
2182
2241
2290
2301
2257
2178
2093
2032
2064
2133
2192
2205
2160
2100
2032
2008
2041
2113
2192
2229
2215
2158
2083
2031
2058
2112
2175
2206
2194
2157
2103
2058
2059
2099
2145
2192
2193
2153
2093
2027
1997
2010
2068
2129
2155
2134
2091
2033
1991
2010
2070
2132
2186
2197
2157
2093
2025
2015
2067
2142
2201
2224
2176
2098
2013
1974
2005
2081
2164
2193
2163
2095
2011
1968
1984
2055
2114
2150
2135
2081
2018
1956
1951
2000
2071
2134
2135
2087
2013
1953
1947
2011
2083
2128
2161
2141
2093
2011
1968
1973
2034
2110
2149
2143
2099
2047
2007
1997
2016
2056
2089
2078
2032
2000
1987
2017
2131
2282
2432
2554
2613
2591
2535
2479
2446
2452
2481
2461
2401
2303
2176
2057
1973
1962
1985
2029
2039
2000
1950
1899
1887
1923
1974
2056
2079
2058
1998
1942
1904
1894
1922
1985
2031
2037
2003
1968
1946
1965
2023
2107
2184
2206
2163
2089
1999
1971
2000
2063
2122
2159
2140
2095
2043
2018
2055
2114
2174
2210
2197
2135
2053
1981
1975
2037
2130
2194
2198
2159
2094
2025
1998
2045
2122
2192
2238
2240
2211
2156
2117
2129
2181
2256
2304
2298
2253
2166
2089
2062
2103
2176
2212
2201
2149
2081
1987
1959
1975
2047
2124
2173
2160
2112
2044
2000
1998
2044
2114
2159
2171
2123
2032
1968
1970
2031
2103
2145
2153
2123
2074
2017
1997
2034
2112
2166
2171
2137
2090
2031
1997
1958
1963
2019
2110
2135
2111
2063
2023
2000
2029
2080
2112
2139
2157
2128
2064
2027
2032
2066
2129
2170
2139
2082
2037
2019
2045
2110
2167
2213
2225
2201
2149
2083
2002
1975
1974
1985
2000
2011
2003
1996
1969
1972
2019
2074
2091
2058
1967
1858
1808
1829
1930
2041
2127
2146
2136
2099
2116
2178
2263
2321
2304
2231
2148
2097
2093
2181
2320
2465
2559
2611
2551
2441
2321
2267
2268
2301
2336
2331
2266
2113
1947
1820
1806
1874
1999
2099
2138
2158
2128
2074
2035
2042
2099
2118
2080
1977
1894
1856
1903
2021
2135
2214
2203
2139
2061
2003
1995
2046
2117
2162
2212
2207
2131
2066
2019
2032
2090
2144
2160
2095
2020
1980
1945
1979
2083
2205
2257
2244
2179
2081
1983
1947
1983
2065
2166
2238
2240
2187
2117
2075
2064
2101
2171
2225
2251
2208
2161
2125
2112
2131
2192
2277
2320
2305
2229
2099
2017
2009
2046
2123
2175
2191
2176
2131
2095
2098
2154
2224
2274
2238
2118
1975
1873
1842
1872
1949
2047
2123
2144
2130
2078
2037
2047
2107
2191
2247
2240
2163
2062
1979
1981
2053
2112
2158
2137
2099
2065
2043
2054
2127
2227
2316
2341
2303
2234
2134
2044
2030
2073
2150
2175
2134
2057
1965
1872
1856
1915
2014
2089
2112
2110
2075
2054
2065
2112
2176
2249
2278
2256
2161
2064
1986
1980
2027
2096
2143
2144
2118
2077
2033
2032
2075
2126
2153
2134
2096
2025
1967
1943
1973
2062
2169
2241
2241
2192
2125
2071
2067
2125
2227
2323
2384
2389
2371
2346
2355
2411
2496
2559
2559
2505
2398
2277
2176
2139
2153
2176
2171
2126
2032
1939
1904
1950
2032
2134
2198
2181
2129
2054
1989
1981
2011
2073
2149
2205
2213
2195
2167
2151
2156
2161
2195
2210
2181
2128
2068
2032
2065
2139
2223
2277
2269
2208
2121
2074
2043
2082
2151
2206
2217
2174
2113
2064
2057
2112
2190
2263
2293
2265
2185
2112
2087
2133
2223
2320
2373
2363
2301
2227
2179
2186
2229
2286
2327
2320
2262
2175
2093
2054
2064
2110
2166
2192
2166
2128
2079
2032
2039
2057
2082
2109
2096
2054
1999
1968
1977
2020
2093
2147
2170
2155
2113
2085
2074
2071
2094
2114
2137
2086
2010
1949
1920
1946
2022
2114
2176
2174
2101
2001
1943
1944
1995
2070
2128
2147
2102
2044
1995
1979
2009
2092
2157
2178
2130
2061
1987
1968
1981
2021
2084
2117
2112
2061
1989
1921
1882
1902
1969
2041
2073
2036
1984
1918
1901
1914
1951
2004
2031
2029
1978
1935
1922
1961
2041
2112
2133
2081
1995
1926
1872
1863
1902
1974
2052
2096
2092
2047
2001
1979
1984
2007
2026
2029
2007
1974
1969
2019
2128
2262
2411
2511
2535
2480
2397
2320
2305
2330
2380
2384
2325
2233
2117
1963
1875
1860
1901
1941
1966
1953
1910
1872
1857
1903
1983
2064
2111
2094
2020
1937
1890
1905
1967
2055
2119
2131
2098
2061
2047
2076
2120
2162
2203
2192
2153
2095
2035
2003
2027
2096
2174
2222
2225
2187
2126
2081
2079
2117
2186
2241
2245
2193
2114
2059
2058
2118
2213
2291
2321
2293
2241
2182
2149
2170
2238
2321
2379
2381
2338
2251
2192
2183
2223
2281
2333
2323
2266
2192
2131
2113
2134
2192
2247
2257
2222
2150
2093
2066
2093
2135
2193
2224
2196
2135
2067
2045
2085
2163
2240
2267
2243
2176
2090
2013
2000
2053
2128
2192
2195
2158
2096
2037
2023
2055
2123
2190
2222
2193
2144
2089
2054
2079
2149
2239
2279
2254
2193
2117
2043
2035
2087
2159
2211
2208
2145
2064
1987
1967
2012
2090
2157
2182
2159
2098
2032
1999
2019
2094
2157
2187
2156
2094
2014
1953
1955
2003
2085
2137
2139
2093
2021
1955
1936
1976
2039
2096
2114
2096
2046
1999
1963
1969
2009
2080
2114
2091
2020
1951
1910
1935
2030
2178
2332
2459
2516
2515
2498
2490
2509
2542
2559
2553
2481
2353
2205
2105
2057
2039
2038
2015
1966
1890
1811
1774
1792
1858
1945
2009
2021
1984
1930
1875
1865
1908
1977
2047
2087
2059
1995
1930
1906
1931
1991
2054
2096
2079
2013
1946
1905
1920
1979
2064
2116
2129
2096
2032
1974
1963
2001
2078
2142
2172
2146
2095
2035
2015
2056
2128
2208
2256
2259
2223
2162
2128
2143
2203
2282
2327
2339
2294
2230
2167
2165
2206
2269
2329
2343
2302
2230
2161
2128
2151
2203
2262
2295
2281
2221
2141
2082
2081
2131
2214
2275
2288
2243
2179
2118
2101
2130
2192
2247
2266
2233
2163
2101
2075
2103
2160
2223
2257
2240
2183
2110
2047
2058
2110
2186
2246
2242
2187
2107
2027
2000
2047
2134
2224
2262
2246
2192
2131
2108
2128
2193
2263
2300
2288
2240
2172
2107
2091
2112
2160
2192
2179
2126
2038
1974
1951
1982
2054
2125
2145
2107
2034
1978
1968
2010
2084
2159
2199
2186
2121
2039
1993
1995
2032
2096
2140
2137
2097
2031
1979
1968
1999
2059
2114
2131
2097
2022
1949
1904
1915
1968
2058
2142
2194
2231
2266
2333
2453
2624
2787
2896
2911
2833
2702
2555
2449
2409
2406
2397
2336
2210
2031
1867
1770
1781
1861
1975
2064
2083
2059
1995
1948
1952
1984
2026
2067
2076
2045
1991
1951
1943
1977
2033
2094
2112
2090
2029
1971
1951
1989
2055
2110
2137
2114
2069
2013
1989
2029
2099
2172
2221
2213
2170
2112
2082
2096
2151
2224
2290
2319
2293
2239
2189
2176
2222
2305
2379
2422
2401
2331
2246
2224
2237
2288
2366
2423
2425
2391
2336
2288
2291
2321
2379
2423
2427
2380
2301
2224
2191
2210
2267
2333
2362
2331
2275
2210
2170
2187
2240
2304
2341
2325
2265
2192
2137
2133
2178
2249
2291
2287
2240
2173
2110
2096
2137
2213
2281
2315
2275
2199
2122
2083
2103
2164
2239
2285
2268
2218
2151
2098
2098
2159
2231
2298
2313
2281
2222
2160
2135
2165
2229
2289
2317
2279
2206
2128
2074
2076
2123
2183
2228
2224
2176
2096
2034
2032
2077
2138
2192
2197
2149
2087
2010
2010
2054
2128
2195
2226
2192
2126
2042
1994
2003
2066
2138
2180
2177
2135
2078
2030
2032
2071
2112
2141
2128
2085
2042
2060
2145
2320
2557
2780
2959
3051
3069
3029
2989
2958
2939
2928
2877
2745
2553
2352
2173
2044
1984
1975
1988
1986
1950
1898
1855
1859
1925
2030
2128
2181
2162
2115
2047
2013
2035
2087
2149
2179
2160
2110
2034
2000
2009
2067
2140
2192
2194
2151
2086
2029
2013
2054
2115
2167
2182
2153
2111
2065
2065
2128
2211
2294
2332
2314
2263
2205
2177
2193
2259
2342
2398
2409
2368
2309
2266
2266
2322
2405
2476
2503
2473
2417
2343
2310
2323
2377
2427
2458
2432
2372
2301
2255
2262
2315
2380
2422
2416
2366
2298
2243
2233
2268
2327
2386
2403
2367
2291
2226
2190
2209
2261
2327
2353
2322
2257
2181
2129
2127
2169
2224
2261
2255
2198
2132
2089
2095
2149
2223
2290
2303
2251
2177
2112
2093
2128
2198
2265
2304
2285
2229
2167
2127
2135
2185
2251
2293
2288
2238
2160
2096
2077
2109
2160
2198
2199
2158
2080
2005
1975
1998
2059
2123
2154
2128
2066
1989
1950
1967
2029
2098
2139
2132
2080
2004
1947
1938
1983
2062
2125
2139
2101
2031
1969
1947
1982
2043
2099
2112
2066
1982
1891
1840
1853
1926
2039
2162
2259
2334
2381
2435
2521
2640
2749
2811
2800
2711
2595
2459
2359
2299
2270
2243
2187
2071
1947
1840
1770
1775
1838
1919
1982
1991
1954
1895
1851
1850
1900
1967
2032
2039
1998
1923
1851
1823
1859
1927
2000
2037
2020
1969
1899
1869
1894
1967
2032
2096
2090
2033
1969
1927
1930
1983
2058
2122
2133
2094
2018
1962
1945
1994
2071
2149
2191
2165
2106
2047
2027
2062
2126
2203
2259
2265
2226
2164
2126
2119
2160
2221
2261
2265
2219
2151
2092
2071
2099
2155
2206
2224
2189
2114
2031
1982
1989
2037
2109
2150
2146
2096
2027
1982
1984
2027
2086
2142
2151
2103
2023
1967
1951
1986
2057
2118
2140
2099
2025
1951
1910
1936
1993
2071
2112
2107
2045
1979
1936
1943
1995
2065
2112
2106
2064
1994
1942
1940
1982
2045
2106
2129
2105
2037
1981
1955
1979
2032
2103
2132
2112
2012
1933
1878
1877
1918
1980
2021
2023
1978
1906
1846
1835
1859
1921
1985
2014
1995
1936
1882
1867
1899
1936
1991
2019
1994
1929
1863
1832
1843
1904
1981
2027
2031
1983
1910
1858
1835
1856
1904
1936
1931
1898
1844
1820
1859
1969
2132
2305
2433
2482
2475
2411
2349
2319
2343
2384
2387
2325
2218
2095
1983
1918
1901
1919
1945
1938
1895
1827
1758
1733
1763
1839
1909
1942
1923
1872
1805
1759
1776
1829
1898
1946
1942
1904
1840
1787
1773
1805
1867
1930
1954
1935
1877
1822
1802
1843
1905
1972
2013
2000
1941
1865
1820
1842
1904
1985
2045
2064
2032
1961
1902
1888
1929
2001
2074
2098
2069
2018
1975
1947
1981
2032
2097
2115
2090
2030
1967
1942
1968
2023
2096
2136
2128
2073
1996
1946
1942
1981
2019
2062
2047
1985
1907
1844
1818
1853
1917
1984
2032
2021
1971
1905
1850
1845
1893
1954
1998
2000
1968
1905
1861
1860
1899
1955
2006
2011
1979
1936
1871
1844
1872
1923
1968
1999
1961
1899
1833
1808
1831
1909
2002
2064
2058
1987
1910
1850
1841
1885
1963
2030
2022
1962
1884
1812
1774
1802
1851
1904
1936
1927
1882
1818
1771
1779
1835
1907
1969
1968
1904
1837
1785
1772
1808
1883
1941
1963
1921
1862
1799
1781
1821
1895
1968
1998
1975
1904
1837
1794
1822
1883
1942
1981
1947
1891
1805
1733
1739
1806
1925
2062
2157
2215
2242
2240
2253
2288
2326
2359
2368
2322
2224
2111
2014
1966
1952
1957
1953
1923
1855
1778
1725
1727
1792
1882
1941
1949
1904
1840
1790
1785
1827
1893
1942
1959
1924
1856
1773
1746
1764
1825
1897
1936
1938
1911
1865
1831
1836
1873
1946
2001
2014
1974
1909
1855
1840
1878
1941
2007
2032
2001
1939
1879
1842
1867
1933
2007
2053
2039
2000
1949
1923
1949
2007
2087
2146
2135
2085
1999
1947
1947
1998
2079
2149
2170
2127
2045
1962
1919
1949
2006
2071
2106
2073
2011
1936
1885
1891
1935
2002
2065
2069
2012
1936
1867
1849
1885
1952
2007
2025
1999
1947
1890
1859
1885
1946
2021
2069
2046
1999
1926
1873
1875
1923
1985
2037
2043
2000
1938
1894
1894
1947
2009
2067
2093
2064
1990
1930
1906
1934
1986
2064
2112
2102
2043
1964
1904
1890
1948
2019
2075
2061
1983
1901
1847
1839
1883
1968
2032
2033
1983
1909
1847
1822
1860
1930
2002
2041
2019
1968
1903
1859
1881
1936
2003
2064
2069
2023
1958
1902
1895
1939
2005
2081
2099
2046
1953
1861
1813
1840
1919
2037
2147
2203
2218
2211
2213
2256
2325
2400
2449
2438
2369
2287
2179
2131
2122
2143
2151
2132
2064
1961
1872
1842
1872
1929
1999
2031
2011
1955
1887
1842
1852
1918
2003
2065
2062
1994
1921
1861
1856
1904
1969
2043
2063
2023
1958
1900
1886
1929
2001
2082
2113
2105
2062
1995
1957
1955
2000
2069
2114
2111
2061
1984
1935
1935
1997
2082
2159
2189
2165
2099
2032
2015
2063
2137
2215
2244
2224
2163
2097
2055
2047
2112
2187
2231
2231
2174
2101
2045
2045
2091
2157
2205
2211
2167
2098
2034
2000
2023
2073
2142
2173
2144
2081
2012
1950
1958
2008
2091
2133
2127
2077
2005
1967
1971
2029
2110
2159
2161
2125
2064
1999
1969
2005
2079
2143
2161
2122
2064
1990
1966
1986
2063
2143
2193
2192
2149
2079
2022
2019
2068
2130
2182
2186
2131
2055
1981
1946
1982
2047
2112
2142
2109
2033
1959
1917
1931
1987
2058
2097
2084
2023
1952
1902
1894
1939
2006
2064
2076
2032
1967
1886
1883
1922
1993
2065
2102
2082
2015
1946
1904
1921
1983
2064
2112
2098
2026
1931
1859
1843
1877
1955
2007
2061
2083
2085
2092
2159
2265
2386
2480
2510
2461
2371
2282
2224
2217
2225
2231
2203
2126
2001
1889
1815
1813
1869
1946
2011
2029
1989
1920
1863
1855
1895
1969
2039
2076
2037
1973
1907
1872
1903
1961
2032
2084
2075
2015
1945
1894
1904
1968
2043
2105
2114
2075
2002
1950
1936
1995
2075
2142
2161
2126
2064
1999
1975
2003
2067
2137
2177
2170
2125
2073
2043
2067
2128
2217
2277
2287
2253
2192
2138
2128
2171
2244
2308
2334
2290
2231
2145
2101
2123
2178
2240
2270
2255
2183
2098
2032
2031
2078
2140
2187
2176
2128
2063
2002
1995
2033
2111
2176
2199
2163
2096
2026
1990
2010
2069
2137
2175
2156
2096
2021
1967
1974
2034
2115
2177
2183
2133
2061
1990
1971
2003
2075
2141
2165
2134
2083
2020
2000
2031
2095
2159
2192
2175
2123
2058
2014
2015
2064
2127
2164
2157
2101
2020
1959
1937
1974
2036
2097
2109
2068
1998
1935
1914
1942
2009
2081
2116
2093
2032
1963
1920
1936
1983
2059
2116
2126
2083
2015
1966
1966
2000
2071
2127
2134
2091
2014
1939
1900
1907
1952
2011
2047
2045
2031
2029
2073
2174
2321
2479
2605
2640
2610
2529
2448
2416
2426
2454
2463
2410
2299
2160
2023
1937
1930
1974
2038
2073
2045
1984
1921
1890
1910
1973
2059
2113
2112
2068
2000
1937
1933
1979
2047
2112
2132
2103
2038
1979
1957
1981
2047
2128
2165
2147
2094
2019
1982
2001
2074
2155
2206
2201
2158
2092
2038
2042
2097
2171
2224
2237
2197
2145
2098
2096
2143
2224
2304
2342
2319
2258
2193
2164
2180
2243
2321
2375
2371
2316
2240
2189
2183
2230
2303
2351
2356
2305
2229
2160
2131
2162
2219
2280
2298
2260
2197
2128
2083
2092
2145
2213
2256
2243
2191
2122
2069
2074
2119
2192
2255
2267
2231
2161
2103
2075
2106
2165
2235
2262
2233
2171
2108
2066
2078
2126
2193
2240
2240
2192
2116
2063
2068
2119
2187
2249
2256
2218
2151
2097
2081
2118
2189
2242
2259
2223
2146
2066
2023
2035
2096
2156
2186
2160
2096
2011
1952
1947
2000
2089
2149
2161
2119
2047
1984
1965
2000
2070
2137
2160
2129
2064
1986
1953
1979
2046
2126
2181
2179
2127
2047
1985
1981
2014
2064
2085
2071
2019
1962
1926
1968
2096
2265
2439
2559
2627
2630
2606
2559
2577
2603
2625
2619
2535
2406
2249
2116
2043
2028
2047
2064
2045
1989
1921
1870
1873
1931
2003
2080
2100
2071
2004
1942
1914
1943
2007
2085
2129
2121
2064
1993
1946
1954
1998
2071
2128
2135
2093
2021
1968
1963
2015
2096
2165
2196
2161
2097
2027
1996
2024
2095
2170
2214
2201
2157
2098
2071
2096
2162
2240
2300
2305
2281
2223
2182
2190
2239
2311
2376
2395
2357
2294
2222
2182
2199
2255
2321
2358
2335
2267
2192
2134
2144
2192
2256
2293
2285
2223
2141
2075
2057
2093
2163
2225
2244
2212
2153
2090
2045
2077
2137
2210
2251
2226
2162
2086
2038
2047
2106
2169
2214
2205
2155
2080
2014
2006
2066
2133
2214
2227
2186
2113
2047
2012
2043
2122
2198
2240
2222
2160
2089
2043
2060
2119
2193
2246
2240
2180
2097
2019
2002
2037
2096
2145
2143
2096
2027
1963
1934
1968
2037
2110
2135
2112
2056
1979
1943
1966
2018
2095
2128
2112
2061
1985
1930
1931
1970
2043
2108
2121
2080
2014
1951
1934
1967
2027
2095
2087
2032
1951
1872
1838
1882
2001
2176
2341
2455
2519
2551
2579
2615
2666
2715
2742
2700
2611
2465
2308
2192
2131
2106
2087
2045
1968
1887
1814
1782
1818
1898
1986
2059
2065
2017
1962
1899
1901
1945
2017
2079
2090
2044
1977
1917
1895
1929
1984
2047
2087
2064
2000
1933
1903
1924
1987
2064
2106
2096
2047
1996
1953
1967
2021
2100
2160
2166
2128
2068
2006
2005
2064
2138
2203
2237
2213
2162
2108
2091
2123
2201
2288
2345
2345
2295
2239
2197
2203
2242
2304
2341
2332
2285
2199
2123
2104
2134
2197
2259
2277
2242
2176
2102
2063
2080
2135
2207
2255
2240
2187
2112
2062
2064
2107
2175
2226
2232
2179
2111
2045
2027
2067
2140
2197
2225
2188
2116
2043
1997
2013
2081
2146
2191
2177
2126
2064
2005
2007
2063
2128
2173
2175
2143
2096
2041
2031
2064
2118
2169
2199
2171
2110
2039
2011
2033
2096
2153
2187
2160
2095
2005
1942
1933
1969
2031
2082
2081
2030
1963
1906
1904
1943
2011
2081
2100
2064
1998
1933
1902
1920
1983
2057
2096
2082
2023
1957
1911
1920
1977
2056
2112
2111
2046
1964
1883
1849
1861
1911
1989
2062
2099
2138
2209
2315
2470
2640
2787
2865
2847
2751
2623
2510
2448
2419
2394
2351
2249
2111
1953
1834
1778
1793
1859
1927
1959
1937
1887
1839
1835
1873
1936
2000
2031
2009
1951
1883
1840
1853
1915
1985
2042
2039
1991
1924
1862
1858
1907
1984
2043
2063
2029
1968
1907
1885
1920
1991
2077
2128
2122
2069
1995
1948
1967
2028
2114
2175
2186
2144
2083
2032
2047
2113
2195
2268
2291
2266
2207
2141
2118
2143
2202
2266
2295
2272
2211
2141
2101
2109
2155
2223
2263
2252
2192
2124
2060
2033
2073
2132
2188
2198
2158
2094
2032
2006
2039
2111
2178
2210
2170
2097
2026
1973
1989
2044
2118
2165
2159
2106
2028
1970
1966
2005
2080
2144
2160
2110
2031
1966
1936
1969
2031
2112
2144
2122
2063
1988
1955
1971
2032
2113
2165
2161
2121
2058
2002
2000
2045
2129
2177
2189
2129
2033
1955
1909
1930
1983
2039
2070
2037
1979
1904
1853
1869
1929
2006
2038
2025
1962
1889
1839
1839
1890
1963
2033
2064
2023
1954
1897
1869
1902
1966
2030
2063
2037
1983
1919
1893
1908
1954
2001
2021
1981
1903
1819
1776
1814
1917
2081
2246
2366
2431
2450
2448
2451
2480
2514
2539
2527
2454
2336
2186
2060
1991
1981
1984
1974
1936
1872
1807
1771
1788
1850
1933
2000
2011
1969
1910
1854
1842
1877
1937
2000
2032
1999
1938
1871
1842
1866
1927
2007
2069
2066
2015
1950
1903
1905
1960
2035
2091
2100
2061
1995
1939
1933
1982
2069
2137
2166
2142
2087
2021
2000
2032
2096
2173
2217
2210
2173
2112
2077
2096
2153
2233
2290
2305
2260
2192
2134
2123
2165
2235
2294
2309
2266
2195
2124
2085
2097
2151
2215
2247
2229
2174
2099
2043
2039
2087
2146
2192
2191
2159
2094
2034
2023
2065
2128
2191
2207
2174
2112
2035
2001
2021
2082
2155
2194
2178
2129
2064
2015
2026
2083
2160
2213
2207
2149
2074
2007
1995
2038
2118
2185
2211
2177
2117
2064
2019
2039
2111
2176
2214
2195
2142
2067
2014
2013
2046
2122
2160
2145
2093
2011
1950
1935
1975
2035
2117
2142
2105
2028
1959
1927
1963
2019
2097
2137
2121
2070
2006
1968
1984
2041
2117
2167
2162
2111
2030
1968
1959
2005
2080
2142
2160
2112
2032
1947
1902
1921
1993
2102
2202
2267
2288
2304
2336
2416
2519
2623
2667
2639
2539
2423
2320
2262
2245
2253
2253
2230
2147
2034
1946
1904
1934
1995
2075
2118
2102
2047
1988
1953
1975
2039
2119
2175
2176
2127
2057
1984
1993
2041
2113
2169
2189
2154
2087
2032
2017
2063
2135
2205
2240
2217
2154
2086
2047
2071
2130
2205
2256
2254
2213
2150
2106
2112
2165
2246
2320
2352
2321
2254
2203
2189
2229
2302
2377
2420
2403
2352
2288
2254
2273
2323
2391
2432
2421
2365
2291
2240
2227
2263
2319
2371
2379
2333
2257
2194
2175
2195
2252
2314
2341
2319
2258
2192
2158
2175
2235
2309
2359
2348
2288
2209
2150
2155
2207
2287
2346
2352
2303
2231
2176
2159
2186
2251
2323
2361
2343
2279
2206
2155
2167
2221
2288
2331
2330
2284
2221
2172
2162
2203
2283
2343
2362
2318
2255
2191
2170
2195
2256
2315
2323
2285
2211
2140
2100
2112
2166
2237
2278
2259
2209
2158
2117
2117
2151
2209
2258
2267
2219
2150
2093
2070
2112
2174
2240
2282
2255
2198
2131
2096
2112
2169
2237
2288
2276
2219
2135
2071
2045
2095
2151
2205
2231
2230
2230
2240
2294
2406
2544
2672
2731
2707
2635
2542
2490
2483
2499
2514
2497
2425
2320
2198
2095
2061
2085
2131
2177
2181
2133
2070
2000
1988
2043
2110
2173
2195
2175
2123
2061
2027
2054
2109
2174
2215
2197
2137
2064
2016
2031
2096
2174
2233
2239
2190
2119
2059
2034
2073
2149
2222
2254
2226
2171
2106
2075
2107
2173
2249
2293
2275
2227
2164
2130
2145
2204
2287
2345
2354
2320
2266
2229
2222
2265
2333
2397
2416
2383
2308
2235
2198
2215
2271
2331
2360
2334
2272
2192
2141
2142
2187
2250
2288
2282
2225
2165
2103
2095
2138
2203
2265
2285
2247
2178
2112
2084
2110
2166
2224
2256
2234
2176
2096
2046
2059
2114
2192
2245
2251
2205
2140
2086
2077
2117
2181
2240
2258
2224
2157
2096
2070
2108
2167
2239
2267
2236
2169
2094
2047
2059
2113
2178
2219
2203
2143
2069
2005
1998
2037
2097
2144
2144
2097
2031
1973
1942
1971
2033
2097
2126
2097
2032
1966
1925
1945
2001
2074
2122
2114
2066
1996
1939
1937
1981
2051
2109
2117
2079
2007
1957
1929
1941
1985
2033
2047
2013
1962
1922
1931
2015
2160
2314
2447
2512
2517
2480
2432
2417
2431
2458
2480
2448
2343
2213
2095
2000
1978
1989
2016
2021
1984
1929
1859
1830
1851
1914
1985
2034
2038
1995
1927
1875
1883
1936
2001
2065
2083
2036
1976
1918
1890
1921
1990
2069
2105
2071
2000
1933
1898
1921
1983
2060
2103
2096
2037
1977
1937
1934
1979
2047
2107
2126
2099
2041
1989
1978
2022
2111
2193
2231
2209
2159
2105
2071
2098
2154
2216
2252
2235
2178
2110
2057
2057
2103
2164
2215
2225
2186
2112
2046
2017
2039
2100
2146
2169
2137
2068
1990
1947
1957
2011
2079
2121
2101
2047
1975
1929
1929
1971
2045
2106
2113
2075
2005
1946
1931
1966
2033
2104
2128
2099
2037
1974
1944
1965
2026
2096
2131
2111
2046
1967
1910
1920
1984
2065
2118
2117
2076
1994
1933
1919
1958
2032
2099
2125
2096
2026
1936
1898
1895
1939
1999
2038
2029
1971
1902
1839
1837
1872
1933
1981
1983
1936
1863
1806
1791
1825
1902
1962
1985
1957
1903
1831
1799
1826
1890
1967
2000
1984
1936
1851
1808
1814
1870
1937
1987
1985
1931
1842
1761
1724
1768
1857
1968
2061
2113
2149
2161
2219
2314
2425
2517
2554
2512
2423
2319
2227
2166
2143
2133
2110
2038
1936
1829
1743
1713
1749
1827
1883
1933
1909
1849
1779
1754
1787
1856
1925
1972
1957
1904
1837
1782
1789
1842
1919
1977
1980
1934
1862
1807
1796
1845
1922
1989
2011
1975
1925
1861
1834
1866
1936
2011
2061
2037
1987
1922
1889
1907
1972
2061
2125
2128
2082
2011
1963
1968
2022
2111
2187
2215
2181
2123
2064
2033
2065
2127
2193
2224
2203
2147
2074
2022
2030
2080
2135
2177
2172
2115
2037
1971
1955
1993
2064
2115
2127
2083
2015
1954
1922
1949
2011
2082
2117
2098
2039
1958
1915
1925
1981
2067
2112
2114
2070
2000
1939
1926
1968
2037
2103
2113
2074
2000
1936
1905
1936
2001
2078
2113
2091
2023
1953
1907
1925
1983
2057
2099
2094
2037
1968
1919
1914
1958
2021
2080
2090
2032
1959
1887
1853
1877
1938
1998
2014
1984
1925
1858
1814
1818
1872
1934
1977
1968
1927
1849
1817
1819
1872
1938
2000
2016
1971
1904
1840
1815
1840
1902
1969
2001
1979
1930
1869
1831
1835
1871
1907
1935
1901
1840
1785
1772
1840
1980
2159
2322
2437
2485
2484
2455
2437
2447
2469
2484
2469
2377
2237
2080
1956
1899
1885
1904
1918
1897
1847
1767
1729
1744
1809
1904
1950
1956
1909
1841
1776
1757
1791
1870
1943
1986
1968
1917
1849
1814
1840
1904
1979
2018
2000
1949
1879
1818
1837
1900
1981
2055
2077
2034
1971
1907
1872
1904
1991
2081
2128
2110
2055
1997
1977
2002
2064
2137
2187
2187
2145
2094
2059
2070
2128
2208
2266
2274
2231
2163
2106
2092
2125
2182
2230
2256
2219
2153
2081
2035
2057
2110
2170
2205
2187
2125
2038
1979
1975
2027
2101
2151
2147
2106
2027
1967
1951
1994
2064
2129
2147
2109
2033
1961
1925
1949
2012
2091
2128
2112
2059
1985
1939
1946
1995
2064
2106
2097
2046
1978
1922
1920
1969
2045
2114
2146
2119
2064
1987
1967
1983
2034
2101
2143
2128
2074
2005
1963
1967
2004
2071
2112
2097
2038
1956
1886
1869
1890
1951
2010
2032
2000
1936
1875
1855
1875
1934
2002
2042
2030
1973
1905
1857
1863
1918
1983
2034
2045
2001
1936
1883
1872
1917
1983
2043
2064
2012
1935
1847
1794
1793
1835
1891
1935
1954
1970
1999
2084
2217
2393
2582
2729
2791
2761
2667
2559
2490
2473
2466
2434
2345
2198
2029
1866
1762
1744
1790
1854
1890
1885
1844
1792
1763
1789
1846
1930
1977
1968
1909
1843
1791
1791
1843
1920
1985
2005
1975
1910
1847
1821
1845
1916
1988
2029
2003
1950
1886
1855
1872
1938
2018
2077
2067
2005
1945
1894
1891
1941
2028
2107
2139
2109
2062
2006
2000
2043
2117
2198
2253
2244
2192
2128
2097
2121
2181
2266
2319
2316
2261
2189
2128
2118
2160
2223
2273
2285
2233
2160
2089
2063
2090
2144
2205
2230
2195
2135
2064
2014
2032
2093
2161
2203
2207
2160
2096
2032
2018
2061
2125
2176
2190
2143
2078
2010
1988
2031
2098
2160
2182
2157
2096
2011
1975
1986
2046
2122
2161
2163
2112
2030
1974
1978
2031
2105
2174
2191
2160
2099
2032
2005
2035
2111
2181
2213
2195
2139
2069
2022
2031
2081
2134
2162
2134
2069
1987
1927
1918
1968
2035
2097
2112
2073
2000
1930
1901
1935
2000
2067
2100
2074
2005
1936
1891
1914
1967
2033
2091
2090
2034
1963
1911
1919
1968
2039
2100
2103
2037
1941
1856
1810
1835
1907
2010
2118
2197
2259
2318
2402
2539
2683
2791
2838
2793
2679
2544
2423
2346
2302
2272
2233
2149
2021
1887
1786
1746
1780
1855
1935
1978
1959
1904
1854
1830
1861
1931
2003
2053
2037
1978
1907
1859
1866
1915
1977
2046
2061
2011
1943
1879
1875
1917
1981
2032
2061
2032
1975
1916
1891
1926
1995
2081
2135
2133
2087
2019
1973
1983
2041
2128
2193
2206
2166
2114
2066
2066
2123
2205
2277
2311
2288
2230
2167
2130
2160
2225
2298
2333
2310
2243
2167
2112
2113
2161
2227
2265
2265
2211
2129
2065
2039
2080
2157
2212
2235
2208
2146
2078
2033
2061
2115
2179
2215
2192
2133
2062
2010
2012
2061
2128
2176
2171
2117
2043
1984
1975
2014
2089
2149
2170
2130
2069
1997
1968
1989
2045
2112
2150
2131
2075
2000
1954
1968
2031
2119
2175
2179
2129
2061
1997
1987
2028
2099
2162
2183
2141
2066
1995
1951
1958
2003
2062
2101
2073
2006
1931
1882
1893
1953
2029
2078
2067
2011
1937
1872
1867
1912
1981
2046
2074
2027
1954
1904
1881
1920
1986
2062
2096
2080
2016
1941
1898
1905
1965
2032
2079
2062
1982
1888
1816
1808
1859
1975
2114
2218
2279
2318
2349
2385
2454
2531
2582
2578
2506
2399
2281
2175
2116
2095
2096
2082
2015
1925
1838
1771
1761
1809
1891
1957
1989
1958
1898
1843
1832
1865
1940
2019
2064
2045
1989
1919
1873
1883
1927
2012
2073
2064
2011
1939
1887
1889
1937
2017
2099
2109
2070
1999
1937
1914
1950
2026
2096
2128
2110
2046
1984
1951
1978
2047
2133
2191
2194
2155
2091
2041
2055
2113
2195
2261
2286
2256
2192
2142
2124
2146
2207
2277
2304
2276
2204
2123
2084
2096
2141
2197
2235
2214
2160
2093
2032
2030
2071
2139
2197
2205
2157
2082
2013
1990
2020
2086
2146
2176
2146
2084
2010
1982
1997
2064
2128
2178
2172
2117
2040
1991
1996
2046
2128
2185
2187
2138
2065
1999
1983
2023
2098
2171
2201
2167
2105
2027
1991
2011
2066
2133
2167
2160
2112
2043
1998
1999
2039
2101
2143
2135
2083
2003
1944
1907
1934
1995
2075
2112
2086
2029
1966
1911
1934
1986
2062
2101
2083
2018
1943
1890
1893
1947
2031
2096
2108
2060
1985
1925
1904
1943
2023
2103
2128
2100
2033
1967
1923
1927
1969
2023
2044
2019
1968
1923
1934
2017
2160
2320
2453
2535
2543
2487
2421
2384
2387
2423
2450
2422
2327
2194
2071
1971
1939
1968
2008
2035
2013
1955
1890
1850
1867
1932
2007
2064
2064
2007
1941
1895
1889
1936
2005
2077
2105
2073
2014
1953
1927
1949
2002
2077
2113
2091
2028
1957
1920
1934
1987
2067
2125
2136
2106
2043
1985
1977
2018
2096
2160
2177
2143
2078
2015
1997
2039
2115
2190
2240
2227
2186
2125
2087
2109
2164
2247
2295
2271
2233
2167
2103
2094
2131
2193
2246
2255
2213
2133
2064
2028
2058
2106
2173
2199
2181
2122
2039
1995
2006
2064
2139
2176
2164
2112
2032
1969
1962
2003
2081
2143
2160
2118
2039
1974
1939
1971
2039
2113
2157
2143
2083
1999
1966
1972
2037
2123
2175
2165
2097
2016
1963
1953
2003
2079
2141
2166
2144
2078
2000
1968
1989
2062
2127
2171
2154
2095
2005
1952
1958
1999
2069
2099
2087
2027
1955
1905
1903
1948
2015
2078
2091
2035
1966
1889
1869
1904
1974
2037
2067
2036
1987
1907
1871
1892
1947
2013
2082
2075
2014
1946
1891
1899
1948
2018
2080
2086
2027
1947
1870
1839
1872
1955
2063
2141
2181
2192
2193
2226
2306
2402
2492
2529
2503
2431
2337
2255
2213
2209
2221
2218
2167
2067
1945
1843
1806
1838
1917
1995
2029
1993
1954
1872
1840
1865
1922
2006
2071
2062
1999
1906
1853
1847
1904
1989
2057
2064
2023
1954
1891
1872
1907
1970
2039
2074
2047
1994
1943
1904
1935
2000
2085
2125
2121
2062
1984
1935
1943
2006
2093
2158
2172
2127
2064
2008
2005
2064
2143
2224
2263
2239
2176
2101
2075
2105
2169
2237
2271
2256
2191
2111
2042
2039
2093
2159
2211
2209
2161
2087
2021
2003
2037
2110
2170
2187
2145
2075
2000
1967
1986
2044
2128
2165
2151
2091
2007
1953
1962
2015
2095
2150
2151
2107
2030
1969
1958
1995
2066
2127
2146
2112
2043
1981
1954
1983
2059
2137
2180
2169
2117
2046
1993
1988
2032
2112
2163
2170
2127
2062
2000
1979
2005
2066
2116
2125
2078
1989
1917
1883
1910
1959
2031
2055
2054
1991
1930
1878
1884
1941
2018
2058
2032
1983
1919
1871
1871
1920
1993
2058
2079
2036
1973
1911
1878
1904
1979
2047
2083
2058
2000
1934
1879
1872
1908
1967
2003
1993
1952
1918
1918
1984
2127
2282
2419
2505
2510
2451
2375
2325
2322
2357
2399
2386
2303
2171
2025
1921
1878
1895
1942
1974
1967
1919
1854
1805
1808
1867
1941
2001
2023
1989
1925
1865
1837
1865
1931
1987
2043
2032
1984
1921
1876
1888
1941
2015
2064
2066
2017
1951
1903
1907
1957
2032
2097
2118
2080
2003
1944
1915
1952
2031
2112
2154
2137
2087
2017
1979
2001
2067
2151
2215
2223
2183
2126
2085
2090
2144
2224
2279
2288
2239
2161
2096
2069
2097
2167
2231
2259
2235
2171
2096
2055
2061
2105
2166
2203
2192
2128
2047
1995
1990
2035
2109
2167
2178
2137
2065
1990
1969
2000
2070
2133
2160
2131
2064
1986
1951
1973
2032
2102
2147
2139
2096
2019
1971
1965
2007
2083
2133
2141
2097
2022
1965
1942
1984
2063
2129
2165
2136
2083
2012
1981
2000
2064
2131
2177
2169
2105
2015
1952
1934
1968
2025
2075
2079
2025
1953
1889
1872
1911
1977
2038
2085
2059
1993
1921
1883
1901
1955
2023
2060
2039
1986
1919
1872
1877
1925
1994
2054
2065
2031
1968
1906
1882
1911
1971
2035
2055
2005
1923
1826
1782
1804
1888
2022
2151
2240
2297
2337
2385
2457
2544
2625
2659
2637
2544
2426
2304
2222
2177
2161
2145
2095
1995
1885
1803
1747
1774
1845
1927
1980
1973
1923
1867
1822
1833
1889
1967
2029
2034
1991
1923
1871
1855
1894
1967
2027
2058
2023
1962
1905
1877
1907
1974
2057
2095
2077
2015
1947
1907
1919
1973
2063
2119
2128
2085
2021
1968
1954
2000
2080
2147
2182
2162
2118
2069
2047
2096
2169
2247
2295
2291
2245
2183
2142
2156
2205
2275
2324
2321
2272
2197
2131
2111
2146
2203
2259
2272
2224
2142
2071
2032
2047
2109
2176
2209
2192
2135
2063
2005
2007
2064
2133
2186
2184
2135
2075
2014
2000
2041
2108
2162
2179
2142
2077
2005
1972
2000
2066
2135
2175
2160
2102
2032
1988
1996
2045
2115
2167
2173
2127
2058
1995
1985
2030
2103
2165
2186
2155
2096
2025
1997
2027
2091
2144
2169
2135
2064
1981
1931
1935
1979
2047
2095
2083
2023
1947
1890
1884
1934
2011
2077
2096
2057
1989
1927
1901
1928
1984
2065
2097
2071
2015
1953
1914
1927
1985
2062
2102
2095
2039
1959
1902
1875
1904
1953
1994
2007
1985
1964
1979
2065
2214
2400
2590
2723
2775
2749
2677
2607
2559
2559
2581
2547
2448
2302
2133
1978
1887
1865
1897
1936
1956
1927
1879
1828
1818
1856
1927
2006
2047
2031
1971
1898
1851
1858
1909
1982
2033
2035
1998
1936
1885
1878
1921
1998
2078
2105
2071
1997
1937
1923
1963
2035
2097
2122
2106
2063
1989
1959
1989
2061
2141
2191
2185
2135
2079
2033
2045
2112
2201
2278
2304
2271
2206
2160
2160
2211
2288
2358
2385
2355
2295
2224
2182
2192
2246
2305
2337
2316
2256
2181
2129
2128
2163
2224
2267
2259
2210
2132
2069
2044
2082
2148
2211
2235
2202
2138
2066
2031
2037
2106
2186
2213
2198
2143
2073
2015
2015
2078
2149
2191
2192
2133
2064
2007
1984
2025
2096
2160
2187
2154
2085
2002
1967
1991
2065
2148
2181
2174
2121
2047
2003
2017
2074
2159
2200
2195
2139
2055
1968
1937
1962
2021
2086
2111
2078
2005
1937
1904
1919
1968
2032
2073
2059
1997
1927
1883
1889
1942
2005
2064
2062
2000
1936
1885
1872
1904
1977
2042
2065
2025
1963
1894
1870
1904
1968
2033
2064
2021
1941
1849
1783
1789
1857
1977
2118
2224
2299
2350
2410
2496
2619
2723
2787
2773
2688
2559
2421
2305
2234
2194
2177
2114
2014
1901
1791
1728
1735
1808
1904
1974
1985
1949
1891
1831
1819
1866
1942
2007
2031
1998
1927
1872
1861
1895
1963
2032
2077
2065
2009
1941
1898
1905
1957
2033
2095
2097
2047
1984
1923
1923
1970
2046
2115
2128
2094
2023
1970
1956
1991
2067
2145
2191
2179
2137
2085
2058
2081
2144
2237
2297
2302
2257
2199
2157
2159
2203
2277
2333
2342
2291
2219
2154
2123
2153
2210
2263
2287
2249
2178
2107
2063
2074
2127
2192
2234
2227
2175
2093
2035
2033
2090
2163
2225
2234
2183
2105
2030
2000
2025
2091
2157
2186
2161
2108
2033
1999
2017
2076
2141
2187
2177
2125
2055
2001
2005
2061
2126
2179
2186
2143
2075
2011
2000
2047
2115
2179
2218
2195
2145
2071
2027
2043
2096
2147
2178
2156
2090
2000
1937
1924
1959
2025
2083
2094
2047
1971
1905
1889
1930
1999
2066
2096
2066
2001
1931
1901
1917
1971
2047
2098
2093
2032
1959
1911
1917
1966
2035
2102
2111
2061
1982
1911
1874
1879
1921
1957
1968
1937
1894
1871
1922
2063
2241
2431
2591
2687
2709
2666
2611
2579
2582
2591
2581
2496
2354
2189
2025
1920
1883
1889
1911
1921
1889
1835
1776
1765
1799
1872
1955
1998
1992
1941
1877
1835
1840
1897
1973
2032
2039
1997
1921
1858
1847
1878
1953
2023
2046
2013
1956
1895
1872
1904
1967
2044
2097
2090
2027
1963
1922
1933
1982
2058
2114
2120
