4032
3724
3123
2549
2193
2117
2320
2591
2692
2513
2061
1521
1173
1151
1456
1927
2263
2314
2057
1606
1237
1159
1399
1857
2269
2406
2235
1808
1373
1171
1286
1693
2146
2389
2331
1983
1523
1229
1243
1563
2022
2359
2407
2145
1697
1317
1216
1428
1875
2298
2461
2307
1893
1460
1262
1380
1791
2244
2497
2444
2102
1643
1335
1342
1675
2156
2507
2559
2309
1857
1469
1365
1593
2038
2466
2629
2461
2027
1601
1392
1503
1910
2378
2653
2609
2261
1808
1497
1505
1833
2308
2672
2731
2459
1994
1599
1477
1699
2152
2583
2739
2582
2159
1712
1495
1613
1993
2455
2729
2678
2321
1845
1499
1473
1774
2242
2603
2650
2384
1906
1494
1364
1566
2009
2443
2616
2448
2018
1559
1327
1424
1827
2288
2555
2507
2156
1674
1343
1330
1638
2112
2479
2550
2305
1845
1440
1314
1504
1955
2399
2581
2439
2034
1574
1335
1427
1817
2295
2587
2544
2192
1713
1377
1360
1666
2141
2513
2598
2347
1876
1461
1331
1535
2005
2449
2646
2507
2096
1632
1375
1467
1833
2309
2611
2593
2239
1751
1392
1360
1664
2139
2511
2602
2361
1901
1474
1330
1521
1969
2414
2612
2487
2081
1612
1353
1421
1807
2287
2587
2558
2221
1743
1401
1367
1664
2139
2525
2624
2393
1935
1504
1363
1562
1999
2451
2657
2533
2143
1671
1415
1491
1866
2336
2629
2613
2285
1806
1456
1424
1715
2197
2613
2736
2512
2062
1625
1458
1630
2055
2509
2718
2595
2181
1706
1431
1499
1855
2326
2638
2624
2286
1799
1444
1396
1679
2160
2559
2675
2451
2000
1584
1423
1583
2003
2450
2672
2558
2151
1660
1365
1411
1807
2336
2714
2801
2594
2243
2039
2166
2625
3284
3984
4095
4023
3415
2928
2711
2786
3095
3413
3456
3121
2512
1891
1479
1425
1727
2170
2467
2474
2171
1702
1342
1294
1566
2036
2447
2559
2357
1900
1456
1280
1441
1875
2337
2580
2480
2096
1632
1345
1387
1749
2240
2559
2594
2297
1819
1446
1381
1642
2109
2518
2655
2449
1983
1554
1374
1529
1967
2438
2688
2622
2224
1744
1446
1473
1820
2307
2647
2683
2397
1930
1535
1470
1728
2199
2621
2758
2559
2121
1676
1488
1643
2075
2551
2813
2734
2361
1894
1601
1631
1988
2485
2838
2864
2559
2093
1703
1616
1866
2333
2750
2877
2672
2219
1767
1578
1712
2128
2592
2843
2754
2371
1890
1587
1607
1935
2405
2752
2783
2480
1996
1595
1488
1723
2175
2587
2724
2533
2098
1641
1426
1552
1968
2442
2698
2629
2246
1754
1433
1452
1794
2286
2645
2691
2406
1922
1519
1408
1645
2122
2535
2702
2518
2085
1631
1424
1570
1962
2433
2704
2643
2272
1776
1450
1450
1796
2288
2656
2698
2419
1965
1552
1452
1682
2145
2580
2756
2592
2154
1681
1453
1562
1967
2439
2710
2647
2288
1802
1475
1472
1801
2282
2647
2701
2427
1944
1527
1408
1624
2089
2534
2709
2543
2099
1632
1409
1521
1931
2405
2688
2643
2279
1798
1468
1455
1776
2263
2639
2707
2446
1968
1553
1424
1633
2095
2540
2719
2558
2126
1657
1408
1495
1902
2381
2663
2624
2271
1776
1434
1412
1745
2220
2597
2672
2413
1942
1527
1397
1602
2045
2492
2691
2546
2128
1651
1408
1500
1898
2390
2704
2672
2311
1820
1472
1453
1759
2228
2602
2672
2413
1953
1519
1397
1616
2090
2544
2737
2594
2162
1680
1413
1486
1876
2354
2643
2607
2243
1747
1379
1343
1633
2112
2494
2593
2352
1874
1453
1315
1509
1971
2434
2643
2496
2064
1570
1290
1346
1732
2213
2508
2497
2190
1748
1469
1527
1945
2586
3184
3505
3440
3082
2725
2624
2839
3319
3887
4095
3717
3029
2349
1872
1744
1952
2307
2516
2434
2059
1535
1159
1107
1399
1904
2320
2434
2225
1767
1333
1169
1328
1769
2218
2430
2315
1906
1424
1158
1227
1616
2111
2432
2433
2109
1627
1253
1200
1482
1968
2371
2483
2270
1804
1359
1195
1359
1808
2278
2507
2399
1987
1495
1219
1283
1666
2160
2481
2480
2162
1668
1295
1230
1501
1995
2431
2559
2361
1918
1483
1308
1470
1917
2389
2615
2499
2110
1625
1331
1378
1759
2257
2608
2635
2329
1841
1456
1377
1648
2131
2550
2687
2475
2011
1559
1366
1525
1951
2412
2648
2542
2150
1666
1366
1397
1757
2240
2559
2586
2272
1779
1387
1299
1535
2018
2429
2555
2352
1898
1413
1209
1347
1771
2231
2459
2367
1968
1482
1177
1205
1554
2035
2383
2415
2118
1633
1234
1146
1399
1882
2309
2447
2254
1805
1345
1149
1287
1722
2204
2449
2369
1985
1498
1199
1222
1580
2074
2423
2459
2173
1690
1289
1199
1433
1905
2325
2473
2293
1841
1383
1179
1301
1743
2215
2474
2400
2021
1535
1229
1231
1565
2047
2409
2446
2147
1651
1263
1170
1410
1884
2320
2475
2295
1840
1381
1177
1313
1729
2202
2454
2384
2006
1513
1203
1215
1552
2035
2387
2432
2156
1679
1278
1180
1418
1889
2319
2469
2282
1834
1364
1145
1264
1691
2177
2439
2377
2005
1509
1170
1167
1502
2000
2367
2430
2160
1674
1264
1137
1358
1824
2271
2442
2275
1831
1360
1136
1247
1664
2142
2415
2365
1997
1511
1171
1168
1498
1997
2384
2448
2184
1701
1273
1151
1346
1845
2289
2461
2305
1870
1383
1137
1232
1637
2128
2414
2375
2017
1524
1186
1180
1499
2000
2390
2468
2218
1735
1310
1179
1382
1842
2288
2474
2327
1902
1418
1179
1269
1678
2173
2463
2429
2087
1604
1276
1258
1581
2077
2465
2535
2263
1777
1349
1216
1414
1869
2307
2490
2341
1909
1434
1183
1263
1659
2142
2432
2394
2063
1582
1227
1200
1495
1981
2359
2432
2176
1687
1253
1098
1285
1785
2285
2559
2544
2258
1956
1889
2155
2715
3378
3933
4002
3543
2990
2581
2446
2606
2919
3138
3024
2587
1941
1377
1131
1250
1661
2088
2290
2177
1776
1304
1051
1133
1530
2022
2336
2317
1974
1488
1131
1089
1378
1872
2275
2379
2146
1671
1229
1061
1231
1694
2167
2387
2267
1852
1368
1095
1151
1535
2032
2352
2351
2014
1517
1146
1099
1390
1883
2291
2388
2163
1710
1267
1110
1283
1739
2203
2424
2317
1905
1425
1165
1223
1607
2102
2427
2434
2117
1641
1269
1218
1502
2003
2426
2548
2349
1891
1452
1283
1473
1911
2384
2621
2509
2113
1627
1337
1386
1751
2245
2578
2582
2261
1775
1392
1321
1583
2047
2464
2591
2383
1921
1461
1278
1424
1856
2320
2545
2443
2022
1530
1238
1269
1626
2110
2426
2425
2099
1600
1211
1127
1392
1873
2293
2422
2218
1746
1295
1105
1255
1695
2173
2411
2317
1911
1415
1122
1163
1521
2019
2365
2383
2077
1575
1186
1117
1382
1856
2279
2419
2225
1763
1307
1099
1232
1664
2139
2393
2307
1917
1424
1126
1154
1503
2000
2353
2384
2093
1600
1210
1136
1391
1872
2301
2445
2256
1802
1344
1138
1276
1712
2186
2435
2347
1957
1456
1139
1162
1510
2027
2382
2415
2113
1616
1213
1109
1351
1827
2256
2404
2225
1779
1319
1099
1231
1664
2149
2407
2343
1952
1466
1143
1160
1503
2000
2371
2437
2164
1676
1263
1152
1376
1840
2270
2427
2253
1802
1337
1135
1259
1674
2169
2436
2375
2000
1507
1185
1205
1535
2032
2393
2439
2161
1679
1268
1167
1405
1892
2341
2498
2315
1845
1391
1168
1279
1702
2177
2448
2385
2025
1535
1231
1234
1573
2064
2432
2485
2210
1732
1322
1202
1431
1929
2361
2523
2355
1911
1445
1206
1296
1723
2210
2495
2453
2097
1606
1267
1264
1600
2096
2467
2526
2255
1763
1328
1191
1403
1862
2289
2455
2301
1859
1393
1160
1262
1666
2154
2434
2386
2032
1535
1181
1159
1482
1982
2370
2438
2178
1681
1255
1135
1365
1881
2401
2687
2660
2366
2062
1984
2243
2779
3398
3893
3894
3394
2791
2307
2119
2235
2517
2714
2638
2253
1679
1169
974
1138
1584
2034
2243
2124
1715
1257
1015
1110
1520
2013
2320
2298
1951
1457
1105
1074
1365
1862
2263
2358
2118
1643
1207
1055
1245
1703
2174
2384
2257
1852
1381
1120
1186
1578
2078
2394
2380
2032
1527
1165
1113
1406
1903
2304
2409
2191
1728
1298
1154
1339
1802
2268
2483
2370
1963
1485
1211
1277
1667
2162
2482
2486
2173
1690
1329
1282
1573
2059
2454
2559
2352
1887
1450
1286
1456
1917
2395
2630
2512
2112
1627
1347
1401
1776
2256
2585
2558
2225
1730
1355
1296
1600
2078
2483
2600
2368
1890
1441
1261
1424
1859
2320
2535
2415
1999
1505
1205
1234
1598
2081
2413
2416
2081
1565
1170
1103
1386
1878
2287
2398
2179
1713
1239
1062
1212
1660
2128
2361
2269
1872
1391
1103
1146
1507
2004
2354
2374
2067
1577
1190
1107
1360
1840
2262
2384
2182
1727
1278
1103
1258
1703
2179
2414
2315
1919
1419
1129
1164
1517
2010
2363
2386
2090
1607
1215
1131
1382
1866
2284
2418
2214
1757
1312
1115
1249
1683
2133
2374
2294
1906
1431
1142
1165
1520
2000
2343
2365
2065
1593
1202
1103
1347
1819
2246
2394
2198
1744
1294
1088
1229
1659
2138
2394
2319
1934
1449
1138
1159
1499
1979
2320
2353
2081
1602
1199
1105
1350
1830
2256
2400
2221
1763
1306
1093
1222
1648
2139
2405
2335
1961
1463
1152
1163
1510
2001
2365
2407
2126
1639
1235
1136
1367
1843
2281
2441
2279
1836
1363
1143
1279
1706
2192
2465
2405
2022
1525
1217
1238
1584
2082
2437
2476
2183
1690
1272
1151
1366
1829
2262
2426
2257
1808
1347
1138
1259
1670
2147
2416
2359
1986
1499
1174
1183
1523
2017
2384
2438
2159
1657
1220
1088
1303
1797
2246
2462
2371
2015
1657
1563
1833
2403
3056
3549
3644
3285
2768
2397
2303
2487
2823
3035
2914
2467
1856
1295
1079
1216
1647
2079
2256
2122
1689
1243
1033
1152
1574
2074
2359
2305
1943
1467
1146
1135
1448
1943
2335
2414
2159
1671
1246
1117
1322
1789
2245
2422
2273
1844
1375
1136
1232
1647
2144
2446
2416
2061
1561
1222
1191
1490
1984
2368
2448
2210
1738
1319
1192
1392
1856
2317
2515
2385
1963
1483
1242
1331
1733
2224
2518
2499
2171
1689
1343
1309
1603
2094
2485
2583
2342
1872
1441
1298
1494
1962
2432
2651
2517
2107
1635
1377
1456
1841
2332
2641
2627
2283
1798
1437
1394
1683
2160
2550
2649
2415
1942
1501
1344
1519
1967
2423
2626
2484
2064
1573
1291
1360
1744
2207
2495
2468
2127
1630
1254
1197
1467
1938
2339
2437
2223
1755
1309
1133
1296
1744
2203
2421
2319
1907
1423
1151
1204
1581
2064
2380
2384
2067
1578
1215
1169
1456
1939
2343
2448
2223
1745
1308
1150
1330
1794
2273
2501
2397
1984
1488
1200
1253
1634
2138
2474
2486
2166
1684
1292
1222
1489
1975
2383
2503
2293
1831
1374
1191
1351
1807
2287
2515
2416
2007
1520
1233
1279
1649
2133
2453
2461
2155
1669
1301
1233
1501
1994
2413
2525
2314
1855
1412
1233
1392
1829
2298
2543
2451
2065
1573
1271
1307
1664
2161
2512
2538
2238
1744
1354
1283
1520
2022
2437
2559
2381
1934
1488
1302
1445
1875
2349
2593
2491
2115
1634
1338
1377
1729
2227
2559
2606
2288
1797
1399
1306
1554
2021
2436
2559
2379
1929
1471
1267
1403
1815
2288
2543
2469
2095
1604
1294
1321
1667
2157
2497
2529
2237
1739
1329
1217
1454
1936
2381
2544
2390
2000
1631
1524
1782
2339
2971
3423
3501
3157
2690
2384
2369
2653
3065
3335
3232
2775
2146
1600
1383
1532
1957
2331
2446
2247
1791
1341
1152
1312
1760
2261
2537
2471
2099
1623
1296
1296
1633
2129
2482
2530
2265
1799
1395
1291
1530
2018
2465
2634
2450
1999
1521
1296
1407
1838
2325
2610
2553
2185
1691
1367
1362
1697
2192
2559
2621
2349
1877
1467
1360
1593
2057
2496
2675
2518
2096
1623
1385
1486
1903
2394
2693
2651
2288
1794
1453
1445
1777
2288
2689
2768
2498
2022
1610
1486
1713
2191
2651
2836
2683
2241
1778
1530
1636
2045
2541
2825
2778
2409
1919
1577
1535
1853
2341
2718
2802
2544
2074
1645
1485
1676
2112
2552
2746
2603
2165
1690
1441
1523
1914
2384
2671
2627
2263
1765
1404
1378
1684
2165
2540
2616
2367
1895
1463
1319
1514
1969
2416
2611
2475
2058
1584
1325
1403
1813
2315
2623
2594
2243
1754
1417
1391
1699
2186
2582
2677
2425
1957
1523
1388
1588
2060
2517
2722
2580
2153
1678
1425
1489
1870
2353
2658
2640
2306
1825
1465
1426
1726
2220
2624
2722
2475
1999
1561
1407
1595
2043
2501
2709
2581
2167
1691
1425
1490
1879
2370
2681
2669
2331
1831
1459
1414
1708
2204
2622
2746
2522
2045
1599
1426
1609
2063
2523
2747
2637
2224
1741
1466
1519
1897
2378
2702
2704
2382
1889
1521
1469
1751
2242
2657
2770
2548
2096
1654
1472
1633
2067
2513
2729
2615
2203
1713
1431
1485
1856
2336
2659
2659
2339
1855
1472
1395
1659
2128
2539
2662
2446
1985
1552
1367
1520
1950
2409
2626
2516
2112
1621
1333
1382
1759
2259
2609
2650
2375
1941
1648
1680
2077
2702
3295
3599
3437
2960
2503
2295
2398
2763
3152
3283
3038
2487
1871
1466
1423
1717
2177
2489
2488
2176
1681
1299
1233
1515
2005
2429
2559
2368
1911
1465
1276
1419
1841
2305
2548
2459
2087
1600
1295
1331
1687
2182
2522
2545
2256
1776
1392
1313
1572
2037
2463
2605
2403
1947
1490
1295
1429
1856
2333
2593
2509
2112
1631
1321
1344
1701
2192
2545
2582
2290
1811
1419
1323
1574
2047
2481
2641
2461
2015
1565
1360
1494
1932
2413
2672
2613
2243
1756
1456
1473
1822
2319
2693
2743
2462
1991
1593
1482
1712
2188
2621
2767
2579
2117
1642
1416
1533
1925
2421
2675
2607
2223
1728
1403
1403
1731
2215
2559
2609
2315
1818
1392
1264
1475
1934
2368
2523
2351
1898
1424
1200
1315
1731
2207
2475
2415
2032
1535
1217
1221
1559
2047
2410
2455
2177
1697
1278
1182
1413
1904
2343
2506
2348
1905
1431
1200
1313
1732
2234
2522
2486
2130
1639
1299
1289
1600
2095
2470
2534
2272
1811
1398
1282
1502
1981
2425
2600
2438
2001
1531
1295
1390
1797
2279
2559
2522
2167
1678
1339
1330
1657
2152
2519
2581
2313
1829
1408
1280
1474
1961
2419
2614
2461
2028
1562
1315
1403
1804
2286
2587
2550
2192
1712
1374
1344
1648
2128
2511
2593
2341
1875
1456
1318
1521
1987
2447
2647
2503
2077
1600
1348
1424
1827
2311
2612
2587
2250
1770
1418
1383
1668
2175
2559
2650
2401
1926
1488
1346
1535
1983
2436
2636
2485
2065
1584
1317
1390
1776
2259
2559
2554
2208
1707
1348
1318
1623
2117
2506
2605
2353
1879
1447
1287
1461
1903
2345
2541
2415
2016
1562
1338
1472
1923
2513
2962
3117
2923
2558
2293
2310
2624
3122
3566
3651
3282
2670
2094
1763
1771
2082
2432
2559
2390
1936
1423
1137
1189
1584
2096
2433
2448
2125
1630
1255
1201
1488
1983
2384
2487
2261
1787
1338
1161
1328
1790
2239
2473
2367
1963
1482
1201
1250
1629
2128
2462
2470
2155
1658
1273
1203
1481
1968
2384
2502
2289
1811
1378
1203
1358
1792
2257
2487
2391
1989
1490
1199
1237
1606
2107
2429
2434
2119
1637
1264
1210
1489
1970
2416
2544
2349
1898
1456
1280
1456
1879
2354
2607
2509
2115
1631
1339
1378
1742
2231
2559
2594
2287
1781
1392
1315
1573
2039
2451
2559
2354
1913
1458
1271
1408
1836
2301
2540
2447
2038
1535
1238
1271
1625
2107
2447
2464
2165
1674
1277
1181
1413
1905
2337
2479
2275
1809
1339
1141
1289
1719
2183
2432
2352
1961
1468
1159
1182
1527
2026
2378
2414
2118
1632
1227
1130
1367
1843
2270
2416
2231
1791
1331
1119
1233
1653
2137
2405
2338
1955
1466
1152
1166
1515
2000
2368
2416
2135
1647
1242
1141
1366
1840
2283
2439
2271
1823
1359
1152
1278
1700
2186
2452
2386
2018
1505
1170
1173
1506
2007
2379
2431
2143
1653
1243
1135
1355
1822
2265
2436
2275
1842
1376
1160
1269
1703
2155
2429
2378
2001
1520
1184
1188
1520
2022
2387
2448
2176
1695
1282
1161
1377
1843
2299
2474
2320
1872
1421
1189
1308
1728
2213
2496
2448
2080
1584
1243
1233
1559
2047
2429
2492
2224
1743
1328
1211
1424
1889
2345
2530
2380
1950
1479
1242
1345
1735
2224
2512
2487
2143
1634
1271
1232
1535
2026
2403
2478
2219
1719
1283
1150
1350
1815
2272
2467
2323
1889
1415
1168
1262
1669
2166
2477
2450
2101
1603
1234
1200
1502
2000
2381
2483
2290
1886
1535
1511
1849
2448
3101
3525
3544
3167
2716
2479
2549
2911
3377
3648
3440
2896
2239
1712
1499
1674
2069
2389
2437
2179
1681
1255
1119
1322
1802
2281
2495
2379
1967
1491
1231
1303
1695
2188
2489
2466
2138
1648
1286
1238
1557
2027
2431
2534
2310
1847
1408
1259
1427
1877
2340
2556
2437
2028
1552
1282
1350
1743
2238
2553
2551
2223
1739
1370
1329
1627
2123
2531
2640
2413
1947
1510
1347
1520
1969
2445
2669
2547
2151
1673
1393
1455
1821
2342
2677
2681
2357
1857
1485
1424
1719
2221
2640
2757
2529
2071
1625
1441
1601
2030
2505
2746
2636
2226
1732
1447
1493
1863
2351
2688
2705
2384
1894
1517
1451
1712
2178
2559
2690
2477
2015
1567
1374
1518
1942
2407
2639
2530
2127
1643
1344
1384
1743
2224
2558
2559
2259
1766
1374
1293
1552
2031
2458
2605
2410
1963
1497
1298
1442
1879
2352
2597
2496
2096
1602
1297
1328
1671
2155
2502
2543
2256
1767
1373
1282
1535
2017
2439
2583
2389
1919
1474
1280
1424
1859
2339
2589
2499
2113
1623
1310
1328
1681
2176
2529
2559
2271
1783
1390
1298
1535
2016
2448
2610
2422
1967
1492
1277
1403
1839
2320
2559
2497
2128
1643
1328
1346
1697
2195
2550
2595
2295
1797
1389
1279
1515
2007
2448
2608
2430
1982
1509
1285
1403
1822
2304
2559
2507
2131
1634
1303
1313
1648
2143
2507
2559
2285
1805
1395
1290
1516
1989
2423
2588
2406
1954
1489
1271
1398
1828
2316
2592
2533
2167
1680
1358
1357
1680
2167
2541
2608
2335
1857
1447
1333
1557
2030
2469
2642
2483
2061
1595
1360
1482
1903
2390
2672
2619
2250
1765
1425
1424
1750
2226
2585
2640
2366
1865
1425
1290
1494
1970
2422
2608
2451
2021
1557
1322
1417
1828
2315
2608
2557
2192
1693
1340
1316
1625
2112
2481
2559
2343
1926
1585
1535
1851
2471
3107
3526
3558
3209
2791
2559
2681
3088
3619
3968
3747
3139
2448
1899
1675
1822
2179
2479
2499
2221
1725
1295
1162
1366
1840
2318
2519
2385
1957
1472
1219
1297
1701
2189
2485
2463
2126
1620
1271
1239
1535
2043
2443
2541
2303
1841
1415
1268
1459
1919
2377
2583
2449
2034
1563
1297
1366
1759
2249
2559
2559
2224
1738
1387
1345
1638
2125
2523
2629
2398
1936
1502
1338
1516
1968
2435
2665
2551
2147
1669
1393
1465
1843
2337
2658
2653
2320
1834
1466
1427
1719
2208
2619
2734
2498
2037
1610
1450
1632
2081
2542
2759
2637
2225
1751
1474
1518
1879
2363
2686
2683
2352
1858
1482
1413
1690
2171
2580
2695
2466
2001
1535
1351
1505
1936
2387
2610
2490
2079
1586
1291
1334
1709
2213
2531
2527
2187
1675
1287
1223
1499
2000
2419
2542
2335
1882
1443
1275
1429
1872
2338
2559
2471
2075
1588
1295
1337
1705
2193
2533
2554
2253
1764
1373
1297
1559
2046
2450
2593
2394
1937
1486
1296
1445
1885
2354
2608
2509
2125
1624
1317
1344
1702
2188
2537
2559
2261
1773
1375
1295
1535
2027
2452
2595
2391
1924
1454
1249
1382
1808
2287
2538
2459
2074
1594
1285
1309
1658
2151
2507
2544
2247
1776
1362
1275
1527
2002
2426
2559
2385
1931
1486
1286
1410
1834
2303
2549
2475
2095
1599
1277
1287
1635
2131
2494
2535
2250
1761
1356
1251
1483
1949
2382
2533
2362
1925
1458
1242
1360
1775
2244
2512
2461
2086
1589
1269
1281
1621
2123
2491
2545
2266
1775
1362
1251
1490
1957
2399
2559
2406
1964
1496
1282
1410
1829
2320
2613
2559
2209
1719
1393
1403
1734
2215
2559
2623
2339
1841
1417
1290
1495
1965
2406
2559
2416
1978
1514
1281
1381
1789
2267
2544
2498
2131
1645
1303
1295
1616
2098
2452
2511
2243
1770
1366
1294
1588
2155
2738
3091
3119
2864
2559
2480
2669
3145
3781
4095
4095
3518
2841
2320
2109
2207
2496
2723
2673
2318
1751
1265
1095
1285
1753
2231
2442
2317
1898
1427
1180
1273
1679
2174
2464
2423
2081
1584
1235
1213
1523
2031
2432
2514
2271
1791
1357
1227
1417
1872
2335
2533
2407
1984
1515
1268
1343
1730
2219
2519
2511
2176
1684
1328
1286
1584
2083
2480
2559
2334
1858
1431
1287
1483
1939
2401
2619
2493
2087
1616
1360
1449
1847
2340
2661
2647
2307
1818
1461
1424
1726
2226
2638
2752
2521
2061
1643
1491
1679
2128
2587
2803
2686
2267
1790
1509
1565
1938
2423
2752
2748
2410
1921
1563
1508
1787
2260
2670
2774
2541
2077
1627
1445
1618
2054
2507
2735
2617
2192
1694
1405
1452
1821
2304
2639
2642
2317
1811
1426
1365
1645
2114
2525
2653
2429
1953
1511
1346
1509
1941
2401
2640
2543
2147
1674
1383
1427
1799
2291
2635
2653
2349
1858
1470
1393
1667
2149
2559
2698
2483
2019
1571
1392
1535
1981
2459
2706
2639
2225
1744
1447
1477
1846
2327
2678
2703
2395
1914
1527
1456
1723
2207
2624
2753
2544
2085
1627
1434
1587
2026
2502
2761
2672
2274
1790
1489
1520
1870
2353
2709
2743
2445
1957
1563
1467
1714
2186
2622
2769
2585
2135
1686
1477
1617
2032
2523
2781
2704
2317
1830
1511
1521
1873
2375
2737
2776
2482
1989
1585
1478
1728
2203
2647
2827
2651
2207
1741
1522
1647
2064
2527
2800
2737
2362
1877
1552
1563
1903
2394
2769
2827
2548
2075
1670
1567
1794
2260
2702
2864
2693
2254
1800
1589
1715
2134
2627
2903
2847
2474
1984
1645
1638
1958
2455
2818
2864
2559
2071
1646
1516
1739
2203
2643
2819
2661
2221
1747
1515
1628
2041
2518
2791
2733
2367
1879
1535
1531
1846
2327
2697
2773
2549
2135
1810
1799
2148
2778
3463
3991
4021
3555
3115
2899
3024
3459
4091
4095
4032
3290
2559
2014
1808
1966
2331
2623
2630
2328
1822
1389
1269
1499
1989
2457
2665
2515
2092
1613
1360
1458
1873
2369
2667
2638
2275
1786
1435
1413
1722
2208
2601
2678
2426
1951
1531
1397
1606
2065
2511
2687
2544
2127
1654
1402
1488
1884
2384
2697
2673
2326
1840
1471
1424
1735
2233
2630
2727
2490
2021
1593
1441
1641
2102
2559
2793
2671
2251
1787
1525
1611
2000
2499
2825
2814
2477
1994
1633
1602
1895
2382
2793
2902
2672
2217
1791
1639
1825
2287
2755
2979
2864
2451
1984
1716
1776
2160
2645
2963
2959
2633
2156
1791
1742
2013
2503
2918
3023
2782
2316
1872
1687
1840
2280
2739
2967
2848
2423
1939
1660
1706
2064
2543
2866
2864
2535
2058
1681
1619
1878
2359
2759
2869
2643
2178
1743
1574
1741
2176
2641
2875
2769
2354
1863
1575
1621
1990
2481
2816
2827
2498
2007
1631
1563
1829
2305
2718
2841
2630
2167
1706
1508
1663
2105
2581
2816
2720
2317
1827
1519
1535
1904
2384
2715
2729
2416
1934
1535
1458
1715
2196
2628
2766
2559
2095
1617
1414
1555
1983
2446
2699
2612
2204
1711
1399
1424
1778
2261
2605
2627
2322
1834
1439
1347
1598
2075
2495
2637
2445
1982
1524
1327
1457
1889
2370
2621
2527
2135
1647
1339
1366
1730
2231
2589
2619
2314
1818
1399
1309
1565
2039
2467
2608
2416
1968
1508
1309
1440
1869
2335
2587
2507
2123
1637
1313
1328
1680
2187
2551
2608
2326
1841
1439
1328
1558
2031
2455
2607
2405
1955
1472
1235
1343
1745
2220
2484
2416
2031
1533
1209
1228
1584
2081
2443
2484
2203
1713
1302
1183
1411
1872
2314
2465
2285
1829
1365
1165
1316
1779
2352
2753
2851
2658
2352
2224
2391
2847
3467
4083
4095
3718
3036
2463
2151
2159
2409
2655
2653
2352
1808
1258
971
1040
1432
1925
2239
2223
1875
1395
1073
1074
1402
1905
2302
2377
2119
1631
1199
1066
1275
1757
2199
2389
2253
1818
1344
1105
1217
1629
2116
2407
2371
2027
1535
1200
1174
1482
1972
2361
2451
2218
1741
1329
1205
1419
1883
2351
2546
2403
1973
1491
1254
1349
1760
2258
2559
2549
2221
1741
1395
1386
1695
2181
2559
2670
2437
1980
1563
1424
1631
2097
2559
2766
2630
2197
1723
1471
1565
1966
2458
2775
2759
2416
1936
1584
1535
1833
2318
2718
2816
2579
2101
1674
1521
1715
2161
2623
2824
2682
2256
1776
1504
1566
1929
2400
2701
2673
2319
1811
1435
1381
1662
2138
2531
2635
2399
1925
1476
1309
1479
1929
2394
2609
2480
2063
1567
1290
1351
1729
2219
2534
2535
2217
1718
1335
1283
1579
2075
2480
2602
2371
1907
1458
1284
1452
1904
2377
2608
2491
2085
1600
1318
1379
1761
2231
2545
2544
2226
1742
1361
1297
1574
2058
2470
2586
2362
1894
1435
1255
1418
1867
2334
2559
2467
2071
1587
1297
1339
1703
2190
2521
2537
2237
1747
1367
1307
1590
2087
2513
2643
2417
1967
1501
1307
1451
1886
2365
2611
2533
2138
1658
1360
1407
1774
2261
2608
2631
2320
1840
1449
1373
1641
2117
2544
2691
2497
2054
1600
1401
1535
1968
2447
2705
2623
2224
1734
1429
1467
1831
2326
2696
2736
2437
1951
1557
1462
1702
2160
2596
2746
2559
2112
1631
1408
1520
1958
2429
2681
2608
2219
1739
1435
1456
1803
2301
2655
2687
2391
1904
1493
1408
1664
2145
2559
2717
2512
2060
1581
1361
1496
1939
2474
2810
2842
2591
2254
2110
2288
2783
3482
4095
4095
3974
3314
2812
2559
2615
2886
3135
3090
2727
2154
1579
1264
1314
1692
2159
2436
2395
2057
1589
1279
1296
1635
2134
2507
2559
2287
1808
1396
1289
1508
1979
2426
2606
2447
2005
1535
1312
1412
1824
2303
2586
2526
2166
1680
1350
1352
1687
2192
2559
2642
2378
1895
1484
1359
1569
2037
2487
2678
2527
2110
1648
1411
1507
1922
2411
2687
2638
2282
1793
1457
1447
1773
2258
2657
2747
2496
2029
1616
1489
1701
2169
2626
2819
2672
2242
1779
1558
1661
2079
2559
2882
2861
2505
2021
1680
1648
1942
2428
2819
2911
2662
2181
1750
1610
1811
2269
2726
2925
2783
2336
1859
1600
1665
2054
2529
2827
2789
2425
1928
1573
1523
1815
2291
2675
2760
2511
2034
1600
1447
1639
2090
2542
2737
2597
2159
1670
1398
1473
1859
2352
2666
2645
2302
1808
1442
1392
1674
2160
2559
2673
2437
1968
1520
1359
1535
2001
2466
2675
2544
2133
1648
1377
1427
1808
2297
2624
2623
2294
1808
1455
1413
1699
2176
2559
2679
2448
1986
1535
1371
1535
1988
2466
2697
2579
2166
1680
1403
1456
1841
2337
2659
2653
2321
1827
1457
1410
1697
2182
2599
2706
2482
2006
1567
1393
1555
1994
2454
2675
2559
2164
1683
1402
1451
1814
2309
2653
2654
2320
1818
1429
1361
1636
2117
2514
2634
2410
1936
1488
1311
1477
1927
2415
2667
2559
2174
1686
1391
1424
1782
2271
2607
2612
2292
1793
1395
1310
1569
2045
2468
2608
2415
1962
1511
1327
1467
1904
2384
2631
2535
2151
1664
1360
1387
1755
2256
2606
2623
2307
1810
1414
1344
1619
2114
2559
2778
2672
2335
2017
1978
2274
2866
3539
4079
4077
3522
2943
2545
2448
2638
2955
3135
2971
2506
1902
1399
1235
1429
1883
2310
2465
2301
1874
1439
1257
1400
1834
2306
2559
2493
2122
1626
1303
1314
1661
2159
2510
2543
2248
1759
1360
1258
1499
1987
2421
2582
2403
1954
1489
1275
1394
1821
2305
2580
2514
2139
1654
1334
1344
1680
2175
2551
2624
2351
1872
1473
1369
1602
2075
2513
2686
2506
2069
1603
1383
1503
1936
2429
2707
2654
2285
1803
1488
1497
1839
2338
2714
2779
2523
2064
1662
1552
1789
2257
2715
2886
2713
2261
1790
1581
1707
2114
2591
2867
2814
2435
1936
1605
1584
1898
2382
2756
2813
2525
2035
1622
1486
1699
2149
2583
2753
2586
2141
1663
1409
1499
1898
2377
2659
2616
2256
1759
1398
1377
1681
2160
2529
2608
2354
1874
1441
1296
1488
1941
2389
2559
2415
1984
1516
1279
1367
1776
2267
2558
2517
2161
1657
1299
1269
1584
2070
2451
2544
2303
1835
1403
1259
1453
1910
2371
2559
2423
1984
1494
1247
1328
1719
2211
2514
2499
2160
1663
1303
1265
1579
2074
2466
2546
2300
1815
1376
1232
1439
1895
2353
2558
2431
2001
1511
1239
1309
1710
2205
2512
2497
2173
1690
1331
1287
1584
2069
2469
2559
2350
1872
1418
1251
1430
1886
2352
2559
2460
2029
1535
1278
1363
1741
2241
2559
2559
2224
1731
1360
1298
1591
2081
2478
2559
2335
1857
1398
1220
1383
1840
2319
2545
2439
2031
1535
1232
1271
1648
2150
2482
2505
2192
1710
1333
1264
1535
2017
2421
2528
2296
1835
1392
1235
1427
1907
2429
2741
2736
2444
2112
1983
2183
2683
3303
3807
3855
3391
2798
2290
2075
2166
2473
2736
2722
2414
1874
1350
1114
1243
1671
2147
2399
2324
1943
1488
1216
1276
1664
2171
2518
2542
2234
1743
1348
1264
1534
2027
2451
2602
2403
1953
1499
1322
1478
1941
2413
2644
2547
2153
1663
1361
1409
1786
2290
2647
2672
2372
1891
1503
1423
1677
2154
2581
2728
2534
2094
1648
1468
1618
2064
2545
2806
2727
2349
1859
1535
1568
1920
2423
2799
2849
2559
2097
1724
1626
1863
2340
2787
2957
2780
2342
1893
1694
1825
2256
2743
3018
2942
2535
2058
1746
1771
2112
2603
2962
2999
2689
2199
1806
1717
1969
2431
2875
3031
2832
2379
1912
1683
1787
2196
2681
2947
2878
2485
2000
1683
1683
2003
2489
2851
2896
2595
2121
1708
1589
1815
2288
2724
2877
2701
2266
1807
1587
1712
2141
2629
2902
2844
2467
1990
1673
1675
1975
2492
2866
2927
2654
2179
1762
1649
1872
2346
2797
2977
2827
2384
1920
1683
1776
2169
2641
2928
2881
2503
2022
1691
1681
1996
2493
2883
2960
2696
2208
1793
1677
1901
2355
2800
2979
2827
2394
1931
1694
1781
2177
2673
2975
2938
2559
2076
1730
1721
2021
2512
2903
2994
2735
2258
1837
1698
1894
2367
2832
3027
2878
2439
1963
1711
1798
2198
2691
3021
3013
2663
2166
1802
1759
2059
2538
2926
2993
2737
2256
1838
1692
1883
2357
2835
3035
2886
2450
1963
1693
1773
2142
2631
2944
2928
2586
2098
1745
1715
2000
2479
2864
2935
2679
2193
1759
1605
1791
2263
2752
3007
2942
2599
2229
2096
2299
2823
3483
4059
4095
3567
2965
2536
2406
2591
2960
3251
3216
2829
2237
1703
1472
1613
2020
2454
2661
2543
2149
1699
1457
1533
1920
2401
2705
2693
2368
1887
1507
1455
1732
2219
2635
2747
2502
2031
1585
1421
1600
2045
2509
2735
2618
2207
1713
1415
1469
1847
2343
2675
2679
2352
1861
1489
1425
1712
2192
2611
2730
2501
2029
1583
1403
1571
2013
2480
2714
2609
2203
1727
1439
1483
1859
2363
2704
2730
2417
1933
1569
1504
1779
2247
2658
2771
2550
2103
1664
1488
1679
2105
2588
2832
2739
2334
1839
1535
1584
1934
2414
2754
2779
2459
1979
1584
1502
1754
2215
2622
2747
2527
2092
1641
1444
1584
2001
2462
2711
2609
2202
1706
1392
1406
1741
2225
2559
2610
2320
1831
1437
1345
1597
2065
2487
2610
2394
1929
1471
1267
1406
1840
2313
2557
2479
2086
1598
1293
1319
1679
2174
2512
2544
2257
1778
1392
1316
1559
2019
2440
2582
2397
1945
1499
1297
1435
1847
2323
2586
2495
2109
1619
1303
1330
1680
2179
2535
2578
2288
1793
1396
1303
1554
2028
2455
2608
2422
1974
1494
1291
1420
1840
2304
2559
2505
2128
1648
1329
1337
1671
2163
2530
2581
2299
1823
1425
1329
1568
2022
2450
2618
2433
1991
1535
1337
1461
1870
2335
2595
2517
2146
1648
1324
1323
1649
2122
2475
2518
2245
1758
1357
1248
1472
1948
2387
2559
2399
1956
1488
1259
1362
1777
2259
2550
2511
2154
1651
1300
1287
1611
2097
2471
2539
2273
1807
1406
1298
1535
2042
2541
2809
2760
2441
2112
1999
2194
2665
3187
3511
3437
2987
2416
1984
1859
2066
2434
2704
2690
2355
1814
1357
1200
1392
1840
2305
2512
2382
1968
1507
1275
1361
1763
2246
2539
2507
2165
1675
1317
1283
1599
2102
2506
2593
2337
1857
1435
1302
1509
1971
2433
2640
2510
2095
1610
1345
1428
1827
2322
2633
2614
2273
1786
1424
1392
1699
2195
2598
2695
2448
1975
1535
1390
1597
2069
2544
2762
2629
2208
1730
1473
1559
1956
2448
2773
2769
2436
1947
1587
1553
1859
2357
2763
2863
2622
2147
1707
1535
1726
2182
2655
2870
2749
2320
1834
1568
1637
2013
2499
2814
2792
2453
1967
1598
1535
1817
2310
2723
2826
2587
2105
1651
1476
1648
2083
2530
2751
2629
2223
1745
1471
1520
1888
2365
2679
2672
2339
1859
1496
1437
1728
2215
2622
2723
2483
2011
1558
1377
1535
2000
2469
2691
2583
2176
1698
1411
1470
1840
2331
2658
2668
2334
1847
1468
1414
1695
2181
2590
2701
2470
2003
1559
1375
1535
1984
2461
2704
2604
2205
1719
1426
1468
1823
2303
2638
2642
2333
1853
1468
1401
1671
2160
2590
2714
2496
2033
1592
1392
1535
1973
2449
2703
2623
2224
1731
1427
1464
1835
2320
2673
2697
2383
1898
1497
1424
1685
2167
2585
2730
2544
2093
1637
1439
1595
2020
2500
2758
2661
2266
1772
1446
1461
1811
2303
2650
2688
2374
1874
1463
1367
1613
2091
2517
2658
2479
2037
1591
1382
1515
1934
2395
2661
2591
2219
1718
1397
1409
1753
2247
2605
2627
2327
1845
1447
1377
1655
2184
2690
2955
2897
2559
2235
2126
2320
2778
3279
3552
3417
2931
2350
1921
1821
2055
2441
2715
2687
2346
1814
1375
1250
1472
1953
2415
2597
2433
2003
1553
1331
1447
1870
2351
2624
2559
2190
1703
1381
1382
1726
2235
2613
2672
2394
1915
1506
1394
1627
2096
2533
2709
2544
2115
1654
1418
1520
1925
2405
2687
2655
2293
1808
1481
1471
1810
2299
2672
2737
2464
1983
1567
1447
1671
2141
2587
2771
2624
2193
1719
1488
1604
2017
2511
2811
2771
2416
1931
1605
1603
1917
2394
2774
2847
2592
2118
1710
1587
1806
2274
2736
2922
2766
2331
1855
1614
1702
2096
2559
2863
2825
2474
1981
1626
1590
1888
2365
2746
2806
2541
2063
1629
1488
1690
2160
2610
2789
2636
2206
1734
1477
1535
1919
2393
2699
2673
2327
1842
1489
1446
1714
2224
2624
2706
2465
2000
1582
1435
1623
2085
2533
2738
2609
2189
1712
1456
1522
1930
2415
2727
2715
2379
1888
1531
1495
1792
2277
2673
2768
2523
2063
1627
1471
1654
2107
2559
2770
2638
2219
1733
1456
1525
1927
2421
2749
2741
2395
1900
1533
1489
1786
2276
2683
2787
2554
2078
1639
1478
1659
2099
2546
2757
2621
2205
1723
1456
1518
1892
2387
2719
2726
2400
1918
1535
1486
1759
2239
2639
2752
2538
2086
1648
1478
1652
2096
2557
2797
2672
2288
1810
1535
1590
1952
2437
2760
2765
2443
1957
1587
1527
1806
2281
2692
2822
2613
2158
1717
1552
1719
2159
2626
2847
2735
2320
1839
1533
1584
1936
2416
2747
2755
2437
1951
1571
1488
1761
2229
2654
2789
2587
2128
1674
1474
1619
2046
2510
2755
2671
2269
1780
1481
1502
1847
2337
2694
2748
2487
2080
1777
1798
2173
2789
3406
3758
3621
3150
2690
2480
2584
2955
3377
3542
3291
2727
2106
1669
1599
1869
2320
2640
2655
2349
1869
1473
1392
1653
2131
2559
2711
2522
2077
1614
1405
1535
1983
2460
2720
2657
2279
1788
1466
1479
1821
2317
2678
2729
2439
1957
1566
1461
1705
2185
2626
2770
2581
2119
1648
1436
1566
1989
2473
2736
2669
2288
1802
1480
1495
1835
2325
2691
2749
2467
1985
1579
1472
1715
2207
2661
2834
2672
2225
1762
1534
1670
2098
2581
2847
2777
2402
1922
1611
1616
1946
2442
2818
2880
2609
2130
1735
1637
1871
2320
2747
2901
2727
2287
1823
1610
1733
2148
2620
2883
2819
2445
1947
1622
1616
1931
2416
2794
2850
2559
2075
1658
1533
1744
2201
2642
2818
2657
2215
1744
1497
1591
1989
2466
2756
2704
2331
1839
1491
1479
1802
2305
2689
2761
2494
2011
1584
1451
1667
2132
2583
2763
2614
2181
1714
1474
1579
1979
2471
2769
2731
2355
1866
1520
1501
1824
2314
2697
2767
2500
2033
1621
1491
1702
2164
2613
2813
2672
2237
1757
1487
1568
1953
2446
2764
2735
2378
1875
1517
1478
1779
2273
2671
2761
2503
2038
1615
1485
1682
2131
2587
2785
2640
2219
1738
1472
1535
1935
2431
2736
2713
2371
1875
1518
1477
1783
2287
2672
2771
2531
2071
1627
1461
1648
2096
2559
2775
2643
2223
1739
1469
1534
1920
2418
2735
2714
2371
1875
1511
1465
1760
2240
2638
2736
2506
2047
1612
1452
1637
2090
2547
2763
2638
2217
1735
1462
1532
1923
2420
2751
2747
2419
1937
1573
1516
1808
2304
2715
2826
2603
2141
1701
1523
1689
2117
2559
2775
2652
2235
1749
1463
1520
1891
2375
2690
2689
2363
1874
1498
1441
1718
2199
2613
2729
2511
2047
1603
1413
1571
2001
2469
2706
2624
2269
1856
1669
1830
2331
3007
3600
3856
3568
3081
2704
2637
2875
3331
3750
3760
3308
2645
2015
1668
1683
2019
2416
2611
2486
2070
1571
1279
1328
1709
2214
2559
2591
2288
1794
1403
1330
1584
2064
2480
2615
2416
1968
1517
1330
1479
1922
2394
2643
2559
2183
1690
1385
1405
1743
2220
2555
2603
2305
1820
1428
1349
1611
2098
2521
2665
2467
2021
1581
1375
1514
1943
2420
2682
2614
2237
1763
1459
1488
1835
2325
2685
2721
2426
1945
1554
1471
1726
2209
2640
2798
2613
2161
1710
1507
1648
2079
2559
2832
2767
2381
1904
1603
1627
1970
2458
2816
2855
2551
2077
1667
1569
1802
2272
2709
2865
2679
2235
1771
1535
1665
2093
2559
2843
2774
2384
1885
1562
1565
1891
2377
2737
2782
2480
1990
1579
1458
1686
2165
2605
2759
2590
2148
1681
1454
1573
1974
2451
2737
2688
2317
1825
1489
1487
1825
2321
2695
2757
2486
2003
1597
1471
1698
2173
2624
2796
2629
2187
1712
1487
1601
2001
2479
2763
2711
2351
1865
1520
1505
1824
2318
2695
2769
2499
2018
1601
1472
1686
2155
2610
2795
2646
2214
1738
1487
1584
1974
2459
2753
2709
2351
1862
1518
1503
1814
2304
2687
2761
2493
2010
1585
1441
1634
2098
2541
2741
2595
2174
1699
1450
1535
1949
2442
2737
2704
2347
1840
1479
1459
1776
2267
2663
2751
2497
2029
1602
1457
1666
2130
2582
2765
2624
2198
1722
1462
1535
1939
2431
2722
2686
2337
1842
1491
1459
1771
2265
2667
2751
2496
2031
1600
1453
1651
2112
2559
2781
2647
2224
1733
1462
1529
1921
2416
2737
2724
2379
1893
1535
1488
1783
2267
2676
2778
2544
2083
1655
1510
1699
2151
2614
2817
2687
2256
1770
1488
1535
1917
2403
2719
2701
2354
1851
1478
1440
1730
2238
2646
2762
2537
2078
1633
1459
1633
2081
2546
2773
2646
2222
1737
1472
1571
1968
2512
2929
3034
2816
2464
2262
2385
2831
3485
4095
4095
4095
3456
2931
2672
2689
2969
3278
3327
3024
2465
1874
1505
1491
1840
2317
2649
2665
2349
1868
1494
1447
1733
2224
2638
2751
2533
2075
1626
1450
1613
2053
2523
2766
2678
2271
1792
1498
1552
1921
2416
2752
2768
2450
1959
1573
1489
1758
2240
2672
2815
2613
2157
1712
1523
1685
2123
2604
2847
2761
2365
1879
1585
1615
1970
2476
2822
2850
2555
2082
1695
1621
1875
2353
2779
2923
2726
2273
1823
1637
1807
2225
2705
2960
2875
2471
1984
1683
1727
2090
2580
2942
2976
2670
2181
1795
1717
1964
2435
2864
2997
2794
2332
1873
1679
1813
2237
2715
2980
2897
2499
2009
1686
1691
2017
2506
2864
2909
2583
2106
1708
1613
1846
2315
2735
2871
2679
2217
1744
1520
1647
2063
2532
2803
2735
2340
1850
1530
1535
1883
2382
2743
2782
2483
1997
1600
1505
1751
2226
2654
2806
2624
2179
1712
1488
1613
2017
2501
2770
2707
2329
1843
1527
1534
1867
2367
2737
2781
2478
1984
1584
1474
1714
2163
2593
2751
2581
2150
1689
1458
1578
1983
2457
2730
2672
2295
1795
1459
1466
1801
2303
2682
2739
2461
1977
1572
1450
1667
2127
2549
2719
2553
2114
1648
1413
1520
1946
2428
2705
2643
2281
1789
1455
1442
1757
2224
2593
2659
2386
1920
1506
1386
1600
2047
2483
2659
2506
2081
1615
1377
1469
1872
2354
2649
2607
2246
1758
1421
1399
1711
2192
2559
2626
2366
1890
1469
1346
1562
2013
2453
2646
2506
2083
1623
1378
1462
1857
2335
2621
2577
2227
1757
1422
1405
1711
2190
2559
2637
2386
1934
1519
1393
1591
2055
2503
2704
2559
2154
1681
1437
1515
1906
2374
2659
2624
2275
1797
1435
1392
1676
2131
2509
2597
2363
1904
1481
1332
1518
1957
2387
2586
2452
2058
1602
1359
1423
1781
2233
2511
2483
2169
1732
1455
1503
1903
2509
3071
3395
3350
3024
2704
2620
2833
3317
3892
4095
3781
3099
2430
1965
1839
2032
2368
2559
2464
2082
1570
1193
1148
1435
1920
2324
2431
2210
1747
1318
1163
1338
1776
2215
2422
2309
1906
1431
1163
1222
1599
2075
2395
2391
2081
1602
1239
1189
1463
1945
2345
2448
2240
1791
1359
1182
1334
1785
2255
2482
2384
1993
1523
1253
1301
1673
2155
2475
2481
2165
1689
1328
1275
1555
2041
2458
2589
2379
1919
1473
1296
1446
1878
2341
2559
2481
2098
1645
1381
1430
1794
2283
2618
2630
2326
1867
1489
1426
1686
2152
2549
2677
2486
2019
1600
1424
1579
2006
2465
2697
2605
2209
1731
1423
1452
1808
2288
2624
2642
2333
1849
1463
1387
1635
2095
2489
2610
2397
1936
1476
1287
1427
1846
2317
2544
2460
2070
1591
1295
1327
1676
2159
2494
2517
2222
1731
1338
1248
1500
1965
2379
2514
2340
1909
1472
1285
1420
1838
2298
2543
2478
2103
1627
1328
1331
1685
2166
2497
2523
2241
1775
1386
1295
1527
1991
2413
2557
2383
1942
1491
1294
1422
1839
2292
2538
2462
2087
1601
1291
1310
1650
2138
2478
2514
2243
1782
1398
1302
1527
1995
2400
2544
2368
1935
1477
1273
1386
1819
2281
2529
2462
2099
1622
1306
1318
1659
2138
2496
2544
2272
1808
1396
1283
1501
1955
2386
2551
2387
1964
1514
1300
1412
1819
2289
2557
2497
2137
1659
1338
1339
1661
2132
2498
2553
2286
1813
1415
1317
1535
2009
2445
2622
2464
2047
1602
1371
1472
1871
2335
2608
2555
2201
1725
1402
1407
1731
2224
2603
2675
2428
1971
1575
1451
1648
2092
2523
2702
2543
2115
1650
1408
1490
1890
2352
2630
2582
2222
1737
1405
1403
1723
2205
2582
2661
2402
1939
1534
1408
1610
2047
2467
2638
2480
2071
1634
1435
1606
2103
2690
3130
3268
3103
2805
2640
2743
3145
3787
4095
4095
3967
3245
2639
2291
2253
2485
2755
2809
2559
2067
1535
1264
1328
1718
2218
2534
2542
2224
1744
1406
1377
1678
2158
2533
2624
2386
1924
1502
1366
1566
2003
2443
2641
2512
2116
1655
1408
1488
1877
2357
2667
2645
2317
1845
1495
1469
1778
2237
2622
2707
2475
2025
1616
1473
1666
2112
2559
2773
2651
2242
1776
1520
1602
1984
2474
2785
2774
2438
1981
1647
1610
1894
2381
2787
2896
2678
2224
1808
1675
1851
2287
2740
2967
2861
2455
1995
1743
1803
2160
2655
2983
2987
2655
2176
1822
1783
2062
2530
2928
3031
2803
2352
1930
1770
1923
2352
2800
3027
2922
2528
2073
1807
1845
2191
2649
2959
2954
2622
2158
1794
1731
1984
2438
2825
2930
2730
2288
1858
1685
1843
2269
2723
2947
2845
2449
1984
1711
1764
2108
2587
2925
2945
2638
2162
1792
1721
1979
2448
2862
2992
2791
2347
1915
1739
1891
2319
2783
3023
2927
2543
2093
1806
1843
2197
2677
3018
3035
2727
2256
1893
1830
2090
2554
2975
3114
2901
2448
2010
1834
1979
2406
2885
3138
3052
2663
2192
1900
1933
2286
2771
3135
3160
2855
2380
2000
1929
2167
2638
3061
3234
3027
2559
2128
1936
2075
2489
2974
3235
3152
2753
2279
1981
1998
2337
2813
3182
3232
2929
2435
2038
1942
2167
2630
3056
3216
3019
2559
2126
1919
2035
2448
2928
3203
3130
2736
2252
1937
1948
2266
2736
3098
3137
2833
2354
1964
1857
2083
2534
2963
3123
2945
2512
2073
1856
1967
2370
2842
3111
3024
2640
2159
1838
1825
2138
2599
2935
2963
2665
2176
1755
1630
1832
2265
2688
2845
2672
2231
1771
1535
1637
2030
2489
2739
2678
2290
1789
1450
1429
1729
2192
2531
2577
2318
1870
1515
1501
1849
2436
3027
3401
3413
3095
2725
2559
2695
3095
3567
3815
3542
2928
2224
1681
1470
1615
1955
2214
2189
1872
1371
960
854
1081
1535
2000
2191
2044
1622
1158
928
1031
1422
1886
2165
2121
1767
1286
946
927
1232
1712
2082
2149
1898
1424
1019
894
1098
1552
1988
2171
2023
1579
1106
869
958
1346
1821
2096
2064
1733
1267
947
941
1249
1737
2103
2173
1925
1457
1047
915
1117
1577
2014
2208
2086
1679
1214
958
1047
1441
1922
2227
2201
1862
1387
1047
1015
1326
1810
2197
2289
2059
1584
1168
1039
1233
1683
2141
2330
2207
1787
1321
1075
1151
1534
2005
2304
2290
1949
1470
1119
1087
1366
1849
2242
2329
2096
1627
1190
1023
1201
1643
2096
2291
2154
1722
1238
967
1030
1408
1891
2194
2176
1842
1363
1007
957
1248
1734
2128
2234
2001
1535
1111
944
1114
1569
2032
2253
2147
1729
1250
973
1041
1424
1917
2228
2225
1911
1428
1083
1040
1328
1817
2224
2323
2100
1634
1189
1041
1200
1653
2125
2352
2250
1840
1367
1100
1142
1501
1989
2320
2331
2017
1534
1162
1098
1360
1838
2243
2364
2159
1703
1264
1093
1263
1713
2175
2399
2288
1877
1392
1111
1168
1535
2047
2378
2388
2079
1589
1207
1136
1405
1895
2318
2441
2239
1781
1334
1152
1309
1744
2215
2455
2373
1985
1509
1229
1265
1642
2128
2460
2474
2174
1696
1325
1261
1520
2013
2438
2559
2368
1907
1461
1290
1450
1904
2393
2651
2559
2173
1690
1397
1433
1787
2275
2626
2653
2353
1862
1463
1379
1632
2105
2522
2666
2483
2037
1609
1426
1600
2033
2519
2783
2706
2320
1857
1573
1611
1963
2454
2812
2839
2533
2055
1669
1623
1936
2512
3086
3392
3360
3056
2767
2738
3028
3669
4095
4095
4095
4086
3412
2954
2783
2905
3205
3392
3260
2822
2256
1806
1677
1904
2391
2852
3041
2894
2471
2034
1843
1980
2396
2881
3168
3113
2736
2258
1949
1965
2299
2787
3183
3248
2960
2482
2095
1998
2231
2716
3183
3367
3183
2731
2285
2077
2203
2627
3142
3463
3408
3008
2525
2219
2247
2604
3129
3583
3718
3410
2928
2544
2463
2721
3239
3839
4095
3961
3389
2923
2731
2874
3362
4095
4095
4095
3984
3423
3130
3161
3553
4095
4095
4095
4095
4016
3609
3515
3819
4095
4095
4095
4095
4095
4095
3984
4095
4095
4095
4095
4095
4095
4095
4095
4095
4095
4095
4095
4095
4095
4095
4095
4095
4095
4095
4095
4095
4095
4095
4095
4095
4095
4095
4095
4095
4095
4095
4095
4095
4095
4095
4095
4095
4095
4095
4095
4095
4095
4095
4095
4095
4095
4095
4095
4095
4095
4095
4095
4095
4095
4095
4095
4095
4095
4095
4095
4095
4095
4095
4095
4095
4095
4095
4095
4095
4095
4095
4095
4095
4095
4095
4095
4095
4095
4095
4095
4095
4095
4095
4095
4095
4095
4095
4095
4095
4095
4095
4095
4095
4095
4095
4095
4095
4095
4095
4095
4095
4095
4095
4095
4095
4095
4095
4095
4095
4095
4095
4095
4095
4095
4095
4095
4095
4095
4095
4095
4095
4095
4095
4095
4095
4095
4095
4095
4095
4095
4095
4095
4095
4095
4095
4095
4095
4095
4095
4095
4095
4095
4095
4095
4095
4095
4095
4095
4095
4095
4095
4095
4095
4095
4095
4095
3610
3146
2995
3183
3635
4095
4095
3695
3071
2559
2351
2464
2860
3318
3557
3391
2914
2417
2164
2259
2697
3295
3889
4095
3856
3358
3041
3013
3294
3855
4095
4095
3728
2969
2310
1904
1851
2119
2434
2543
2352
1872
1331
1006
1036
1378
1865
2198
2224
1907
1403
995
900
1130
1589
1977
2083
1857
1373
912
714
832
1235
1695
1912
1804
1375
861
558
577
907
1379
1712
1709
1374
867
482
384
607
1058
1461
1585
1392
910
465
276
413
831
1294
1520
1412
997
498
188
193
511
996
1344
1377
1071
575
185
96
327
788
1219
1360
1163
704
240
39
163
587
1057
1314
1243
859
368
41
40
368
849
1216
1247
942
457
64
0
194
656
1088
1232
1035
566
100
0
5
399
857
1104
1041
638
126
0
0
128
576
929
975
682
193
0
0
0
319
710
854
690
271
0
0
0
142
558
793
733
369
0
0
0
0
387
730
783
544
77
0
0
0
309
715
871
714
279
0
0
0
153
576
831
778
447
0
0
0
32
447
795
861
603
144
0
0
0
337
736
905
746
323
0
0
0
182
625
900
863
511
41
0
0
55
480
832
912
669
217
0
0
0
344
768
960
838
413
0
0
0
256
720
1019
989
651
175
0
0
132
621
987
1070
816
357
0
0
77
530
981
1188
1041
602
131
0
0
334
813
1122
1095
751
278
0
0
209
704
1115
1203
958
473
58
0
117
574
1040
1254
1115
683
221
0
46
419
898
1205
1175
828
366
49
64
435
1013
1523
1758
1672
1361
1095
1091
1386
1904
2389
2591
2402
1888
1265
839
734
945
1285
1481
1365
951
413
14
0
210
704
1139
1291
1085
627
222
79
259
710
1189
1420
1306
896
423
166
240
619
1122
1457
1472
1129
634
272
242
538
1039
1457
1575
1347
886
464
314
481
933
1414
1646
1535
1133
656
384
446
817
1321
1669
1680
1355
875
511
475
755
1262
1683
1807
1597
1134
704
554
725
1179
1659
1889
1798
1402
925
663
730
1112
1629
1971
1984
1661
1171
807
752
1035
1522
1957
2083
1872
1414
982
819
977
1427
1904
2134
2026
1619
1135
839
886
1247
1741
2070
2096
1795
1313
927
861
1123
1601
2002
2112
1891
1425
975
788
945
1381
1851
2084
1982
1578
1091
802
837
1193
1691
2037
2066
1757
1270
883
807
1066
1553
1979
2109
1906
1464
1040
844
977
1406
1873
2139
2068
1686
1210
917
957
1310
1803
2150
2180
1877
1390
994
912
1168
1664
2109
2256
2065
1609
1155
948
1089
1522
2005
2258
2177
1781
1293
990
1020
1382
1879
2235
2273
1974
1483
1087
991
1239
1722
2147
2286
2098
1650
1205
1013
1164
1595
2078
2337
2274
1903
1419
1106
1134
1473
1952
2305
2359
2086
1603
1199
1092
1327
1806
2240
2405
2237
1801
1344
1138
1279
1713
2189
2445
2375
1987
1489
1163
1157
1481
1967
2326
2373
2097
1616
1216
1109
1344
1813
2261
2431
2263
1829
1356
1139
1264
1682
2166
2439
2377
2000
1503
1186
1189
1516
2000
2349
2383
2102
1633
1262
1209
1517
2102
2652
2975
2979
2706
2393
2288
2470
2913
3454
3807
3648
3088
2433
1934
1747
1894
2253
2517
2496
2173
1644
1198
1066
1269
1735
2192
2387
2251
1836
1373
1137
1234
1632
2121
2407
2371
2032
1552
1216
1195
1502
1989
2375
2453
2207
1730
1296
1151
1346
1809
2263
2457
2323
1911
1456
1232
1329
1734
2223
2511
2480
2137
1647
1298
1278
1584
2073
2465
2547
2306
1841
1424
1296
1500
1966
2420
2621
2484
2067
1589
1344
1443
1849
2346
2654
2633
2291
1815
1472
1437
1739
2227
2621
2715
2480
2031
1616
1461
1658
2119
2559
2770
2631
2201
1723
1460
1530
1922
2413
2727
2713
2379
1899
1535
1506
1789
2258
2640
2734
2501
2028
1581
1407
1591
2022
2474
2688
2559
2154
1671
1397
1457
1831
2304
2613
2601
2256
1754
1377
1333
1621
2109
2506
2599
2363
1880
1431
1270
1439
1897
2359
2587
2481
2081
1597
1315
1378
1773
2259
2597
2593
2256
1754
1370
1309
1584
2090
2495
2607
2381
1929
1492
1328
1499
1951
2417
2643
2525
2125
1645
1350
1386
1743
2227
2559
2559
2239
1763
1397
1344
1618
2105
2507
2627
2401
1935
1477
1296
1457
1903
2373
2613
2510
2114
1627
1330
1371
1739
2224
2559
2580
2263
1776
1392
1328
1595
2067
2480
2613
2409
1953
1507
1323
1470
1900
2373
2621
2531
2142
1648
1344
1383
1746
2243
2598
2624
2319
1831
1435
1357
1616
2094
2509
2651
2449
1993
1525
1311
1433
1853
2310
2541
2448
2061
1567
1269
1311
1669
2161
2512
2544
2250
1758
1357
1267
1509
1988
2415
2546
2352
1889
1420
1214
1343
1765
2247
2531
2509
2205
1818
1635
1798
2287
2928
3477
3692
3414
2922
2514
2389
2559
2958
3282
3280
2893
2263
1658
1327
1355
1714
2146
2381
2307
1936
1467
1173
1200
1535
2045
2406
2449
2165
1681
1281
1180
1407
1887
2321
2479
2302
1873
1408
1198
1311
1722
2195
2462
2409
2042
1567
1247
1264
1599
2079
2431
2476
2193
1712
1307
1209
1441
1907
2347
2511
2341
1893
1414
1194
1305
1728
2218
2487
2433
2064
1572
1243
1251
1589
2094
2465
2531
2274
1789
1371
1259
1483
1973
2397
2559
2428
2000
1535
1326
1449
1862
2333
2624
2559
2215
1743
1411
1400
1715
2203
2581
2651
2384
1904
1485
1366
1589
2031
2464
2641
2486
2053
1579
1331
1419
1808
2273
2553
2509
2154
1655
1305
1278
1573
2047
2423
2486
2226
1727
1311
1165
1357
1809
2256
2442
2302
1874
1408
1167
1251
1648
2127
2419
2386
2031
1522
1161
1131
1432
1924
2309
2398
2158
1686
1262
1118
1303
1753
2202
2398
2267
1851
1386
1142
1216
1612
2096
2400
2377
2035
1535
1200
1167
1466
1949
2339
2423
2192
1725
1298
1153
1335
1795
2247
2448
2331
1909
1435
1181
1262
1649
2133
2427
2409
2075
1584
1218
1174
1468
1955
2367
2474
2240
1770
1328
1168
1359
1821
2282
2474
2339
1919
1434
1168
1239
1631
2141
2466
2463
2133
1649
1267
1221
1503
1983
2385
2490
2275
1804
1363
1207
1381
1831
2293
2512
2399
1984
1497
1219
1279
1659
2147
2463
2463
2143
1653
1291
1249
1535
2017
2427
2532
2315
1850
1398
1230
1394
1840
2294
2512
2398
1979
1479
1196
1243
1614
2109
2447
2448
2122
1627
1254
1187
1430
1942
2363
2480
2271
1807
1353
1169
1319
1749
2209
2429
2320
1909
1427
1169
1243
1689
2277
2721
2871
2717
2401
2179
2218
2535
3043
3522
3691
3390
2816
2250
1905
1890
2160
2481
2607
2416
1942
1398
1077
1089
1447
1948
2299
2333
2037
1566
1183
1104
1347
1831
2256
2391
2199
1745
1291
1093
1233
1666
2151
2407
2311
1934
1450
1152
1179
1525
2014
2369
2403
2118
1634
1232
1149
1407
1891
2321
2467
2281
1825
1365
1169
1315
1745
2236
2493
2419
2034
1535
1239
1273
1629
2117
2477
2525
2246
1771
1380
1282
1520
1984
2416
2559
2400
1965
1503
1300
1435
1871
2352
2624
2559
2192
1711
1392
1399
1746
2229
2582
2631
2353
1862
1483
1391
1617
2080
2496
2653
2479
2037
1583
1362
1485
1904
2379
2643
2559
2194
1697
1362
1367
1691
2168
2519
2559
2284
1793
1375
1264
1479
1929
2350
2509
2337
1903
1442
1229
1338
1747
2218
2485
2432
2070
1571
1235
1232
1563
2035
2416
2479
2209
1738
1330
1215
1422
1883
2327
2505
2356
1919
1452
1221
1328
1741
2224
2501
2453
2096
1607
1274
1267
1603
2096
2459
2511
2240
1772
1361
1239
1446
1919
2368
2549
2401
1975
1501
1271
1369
1775
2250
2532
2491
2135
1653
1298
1280
1601
2091
2471
2548
2303
1830
1400
1259
1460
1920
2371
2559
2421
1993
1519
1274
1360
1759
2242
2542
2509
2167
1669
1320
1295
1596
2077
2462
2543
2295
1823
1399
1265
1465
1915
2368
2559
2434
2003
1525
1266
1341
1729
2222
2523
2510
2177
1689
1331
1292
1582
2054
2434
2538
2301
1827
1392
1237
1426
1884
2350
2551
2427
2007
1535
1269
1344
1740
2224
2527
2512
2187
1695
1335
1299
1607
2096
2480
2559
2333
1868
1429
1280
1455
1905
2368
2587
2470
2078
1605
1330
1388
1764
2243
2559
2553
2224
1730
1360
1306
1582
2046
2438
2535
2318
1854
1413
1243
1411
1855
2319
2546
2438
2033
1556
1278
1328
1694
2174
2487
2480
2156
1654
1278
1226
1515
2035
2514
2726
2619
2288
1993
1986
2301
2854
3446
3825
3696
3184
2642
2289
2228
2448
2782
2960
2788
2343
1747
1283
1147
1354
1808
2213
2350
2163
1711
1265
1088
1250
1701
2181
2419
2320
1907
1407
1107
1154
1529
2017
2350
2368
2064
1584
1200
1119
1371
1841
2262
2390
2195
1744
1296
1111
1263
1706
2182
2422
2343
1955
1471
1186
1233
1594
2083
2427
2448
2151
1664
1278
1204
1462
1949
2371
2505
2306
1857
1407
1227
1370
1782
2271
2527
2453
2067
1585
1287
1328
1681
2183
2544
2593
2301
1822
1424
1342
1590
2059
2483
2645
2465
2038
1586
1374
1501
1917
2390
2651
2587
2198
1721
1408
1424
1766
2252
2611
2644
2351
1859
1448
1342
1579
2059
2486
2641
2451
1998
1527
1315
1425
1841
2321
2589
2522
2147
1653
1330
1333
1664
2142
2495
2527
2241
1762
1354
1247
1477
1961
2397
2559
2387
1950
1485
1264
1375
1793
2263
2533
2474
2112
1623
1302
1310
1645
2131
2496
2551
2276
1793
1389
1269
1487
1946
2390
2559
2406
1967
1494
1266
1370
1782
2269
2545
2494
2135
1647
1314
1303
1630
2128
2502
2559
2311
1822
1403
1283
1491
1950
2390
2559
2416
1995
1535
1297
1369
1775
2249
2538
2503
2156
1664
1323
1305
1611
2100
2478
2545
2289
1826
1404
1275
1478
1935
2383
2578
2432
2011
1531
1271
1360
1762
2243
2535
2507
2161
1670
1329
1303
1612
2099
2480
2559
2309
1834
1401
1252
1441
1901
2357
2559
2438
2021
1553
1296
1378
1773
2259
2558
2535
2192
1694
1328
1293
1591
2075
2465
2549
2307
1842
1417
1264
1454
1913
2375
2577
2439
2016
1535
1267
1338
1727
2226
2539
2528
2187
1695
1339
1293
1572
2047
2448
2551
2335
1877
1430
1276
1456
1909
2369
2583
2450
2034
1535
1279
1359
1737
2225
2542
2534
2206
1709
1335
1298
1604
2096
2499
2611
2381
1917
1475
1310
1488
1933
2398
2612
2479
2068
1595
1317
1374
1758
2258
2593
2595
2268
1782
1399
1344
1616
2092
2487
2601
2367
1902
1446
1267
1426
1858
2313
2536
2441
2037
1535
1254
1302
1674
2172
2499
2503
2182
1689
1309
1239
1474
1974
2383
2510
2322
1917
1533
1445
1723
2293
2934
3391
3477
3181
2759
2515
2593
2960
3481
3877
3741
3183
2497
1926
1662
1759
2112
2426
2470
2209
1727
1263
1071
1226
1675
2159
2415
2338
1950
1467
1167
1194
1568
2031
2375
2401
2101
1611
1223
1147
1397
1882
