1745
1923
2047
2004
1835
1633
1535
1638
1850
2109
2256
2187
1958
1654
1426
1415
1623
1953
2209
2266
2127
1851
1600
1513
1612
1843
2079
2160
2065
1825
1535
1387
1420
1594
1824
1957
1934
1759
1494
1346
1360
1534
1801
2023
2080
1957
1712
1473
1393
1505
1760
2031
2163
2095
1887
1680
1616
1786
2107
2499
2821
2975
2950
2785
2655
2685
2839
3054
3167
3033
2703
2227
1770
1499
1515
1737
1986
2103
2003
1774
1490
1343
1392
1600
1850
2018
1995
1802
1520
1329
1318
1467
1738
1982
2069
1961
1715
1468
1383
1495
1743
1971
2069
1983
1778
1531
1413
1513
1769
2047
2176
2087
1819
1503
1327
1378
1628
1968
2224
2282
2126
1846
1605
1535
1665
1920
2176
2295
2217
1994
1744
1609
1665
1894
2193
2402
2403
2239
1981
1807
1805
1948
2189
2368
2369
2215
1958
1731
1668
1795
2059
2313
2415
2326
2096
1840
1711
1781
1975
2202
2325
2248
2000
1693
1458
1440
1643
1974
2267
2374
2277
2025
1776
1681
1757
1968
2199
2285
2174
1919
1648
1506
1585
1819
2101
2273
2240
2022
1724
1503
1471
1618
1875
2089
2128
1995
1730
1489
1455
1604
1859
2111
2194
2112
1858
1616
1461
1485
1660
1891
2033
2027
1874
1645
1460
1451
1599
1831
2022
2077
1969
1767
1579
1520
1626
1854
2074
2157
2043
1808
1526
1390
1445
1673
1954
2160
2176
2017
1742
1533
1520
1676
1936
2156
2183
2027
1758
1513
1427
1535
1797
2047
2163
2096
1866
1587
1429
1472
1664
1921
2109
2130
2022
1837
1728
1806
2071
2449
2802
2969
2943
2749
2539
2465
2559
2726
2876
2864
2645
2267
1843
1582
1573
1756
2009
2176
2160
1989
1721
1515
1488
1642
1907
2140
2185
2054
1793
1567
1502
1637
1884
2116
2197
2089
1840
1597
1468
1521
1707
1938
2098
2082
1906
1667
1511
1535
1719
1969
2179
2229
2115
1904
1681
1616
1712
1935
2176
2303
2237
2003
1766
1650
1737
1968
2237
2394
2354
2141
1854
1659
1670
1863
2169
2406
2480
2369
2122
1879
1805
1919
2160
2391
2480
2395
2177
1918
1759
1798
1977
2215
2378
2402
2270
2043
1859
1856
1993
2217
2406
2448
2320
2053
1815
1741
1846
2082
2320
2413
2320
2095
1811
1665
1721
1926
2177
2320
2279
2097
1829
1640
1622
1757
1989
2192
2231
2097
1841
1614
1535
1662
1885
2107
2194
2127
1927
1698
1591
1647
1821
2057
2203
2176
2015
1795
1645
1649
1781
1987
2167
2203
2086
1853
1663
1613
1711
1934
2160
2255
2183
1943
1710
1601
1683
1904
2147
2270
2208
2009
1744
1535
1535
1703
1958
2154
2173
2019
1765
1535
1507
1631
1871
2097
2167
2061
1825
1585
1488
1589
1824
2111
2251
2183
1947
1643
1449
1436
1603
1897
2151
2224
2126
1936
1823
1911
2193
2591
2958
3138
3063
2815
2527
2339
2320
2447
2610
2654
2513
2235
1872
1611
1535
1661
1877
2055
2062
1914
1666
1454
1403
1534
1787
2017
2105
1995
1762
1514
1407
1490
1730
1999
2160
2118
1914
1648
1471
1483
1658
1925
2145
2187
2058
1808
1584
1494
1603
1838
2085
2176
2093
1859
1616
1494
1580
1797
2061
2205
2172
1985
1728
1535
1569
1776
2069
2279
2303
2160
1900
1694
1657
1781
2027
2271
2373
2303
2089
1841
1712
1764
1979
2261
2428
2390
2192
1919
1737
1751
1931
2199
2407
2428
2279
1998
1787
1727
1850
2096
2319
2382
2272
2023
1771
1655
1731
1947
2203
2333
2283
2089
1821
1650
1665
1835
2085
2260
2271
2109
1835
1602
1535
1675
1922
2155
2227
2112
1852
1593
1479
1572
1801
2075
2227
2177
1969
1709
1535
1584
1765
2031
2197
2211
2063
1791
1559
1493
1621
1860
2093
2180
2119
1914
1685
1573
1648
1872
2134
2276
2225
2021
1741
1563
1584
1777
2059
2240
2233
2066
1794
1561
1489
1606
1856
2096
2173
2061
1815
1559
1445
1518
1744
2011
2174
2134
1937
1669
1494
1505
1691
1959
2171
2187
2018
1748
1498
1411
1521
1770
2023
2157
2123
1997
1889
1941
2196
2606
3023
3311
3325
3127
2834
2613
2559
2670
2802
2878
2750
2442
2043
1728
1597
1645
1821
2001
2065
1931
1680
1412
1305
1389
1616
1883
2015
1958
1744
1467
1307
1349
1535
1820
2003
2000
1867
1623
1424
1393
1535
1798
2039
2130
2019
1775
1506
1390
1477
1718
1983
2125
2078
1878
1616
1449
1486
1705
1996
2195
2215
2058
1795
1584
1535
1682
1937
2176
2253
2147
1908
1671
1587
1689
1937
2224
2394
2379
2202
1947
1793
1812
1969
2211
2384
2391
2238
1977
1766
1712
1840
2102
2339
2414
2304
2064
1810
1706
1783
1991
2242
2386
2338
2134
1857
1689
1712
1886
2128
2291
2274
2077
1799
1589
1563
1691
1951
2187
2254
2143
1903
1651
1535
1605
1815
2058
2177
2096
1874
1615
1477
1535
1743
2000
2182
2185
2035
1778
1520
1410
1475
1711
1971
2108
2071
1890
1664
1566
1663
1904
2157
2275
2206
1991
1717
1505
1458
1620
1910
2139
2179
2065
1831
1658
1659
1821
2069
2275
2293
2128
1845
1572
1433
1486
1678
1911
2045
2003
1829
1646
1520
1557
1712
1937
2112
2119
2006
1794
1616
1573
1697
1947
2165
2222
2097
1855
1623
1552
1627
1815
2015
2099
2019
1835
1631
1562
1711
2041
2487
2865
3055
3049
2889
2705
2659
2777
3001
3183
3149
2905
2517
2128
1872
1812
1927
2103
2171
2029
1728
1375
1152
1168
1360
1709
1951
2013
1902
1669
1467
1420
1535
1774
1989
2074
1984
1770
1553
1458
1535
1738
1933
2006
1929
1735
1510
1390
1443
1648
1913
2105
2111
1969
1735
1527
1488
1611
1837
2054
2141
2064
1858
1623
1535
1641
1866
2102
2206
2112
1870
1625
1491
1578
1823
2106
2303
2318
2157
1879
1680
1664
1808
2053
2258
2313
2192
1936
1695
1594
1659
1845
2071
2207
2177
1991
1745
1589
1599
1767
2021
2207
2197
2027
1751
1535
1505
1651
1911
2131
2181
2056
1783
1494
1360
1414
1611
1872
2019
1980
1783
1509
1328
1319
1477
1754
1977
2042
1915
1664
1456
1431
1566
1840
2062
2097
1926
1631
1339
1219
1311
1599
1946
2182
2211
2058
1808
1632
1631
1776
1999
2160
2149
1993
1742
1533
1490
1647
1934
2195
2309
2241
2035
1813
1728
1821
2032
2250
2321
2221
1987
1743
1619
1685
1903
2194
2391
2390
2218
1947
1746
1724
1847
2083
2307
2387
2307
2111
1910
1855
1967
2203
2447
2579
2527
2352
2131
1996
2017
2186
2416
2586
2559
2391
2133
1959
1987
2210
2559
2968
3233
3290
3200
3099
3098
3229
3471
3753
3828
3600
3213
2800
2509
2396
2433
2554
2624
2545
2370
2155
2015
2062
2259
2554
2789
2831
2688
2432
2194
2118
2224
2462
2721
2837
2736
2461
2170
2041
2164
2448
2800
3020
2963
2730
2411
2187
2174
2327
2597
2817
2871
2737
2477
2230
2133
2214
2426
2635
2718
2639
2426
2176
2029
2078
2286
2539
2678
2624
2422
2174
1995
2005
2196
2491
2744
2811
2684
2416
2153
2021
2113
2363
2629
2737
2640
2398
2123
1968
2026
2257
2551
2722
2654
2384
2032
1773
1728
1871
2156
2445
2559
2454
2185
1911
1831
1959
2246
2543
2653
2523
2231
1894
1712
1775
2002
2320
2512
2484
2266
1927
1653
1600
1776
2110
2400
2496
2379
2079
1757
1616
1680
1917
2163
2244
2103
1811
1509
1397
1535
1838
2176
2356
2287
2032
1699
1456
1440
1605
1891
2133
2157
1962
1616
1355
1341
1559
1911
2227
2319
2149
1794
1424
1241
1333
1629
1993
2239
2229
1995
1615
1323
1263
1425
1756
2055
2167
2093
1856
1632
1535
1631
1847
2071
2151
2000
1699
1378
1232
1343
1645
2007
2219
2150
1862
1477
1206
1179
1373
1717
1998
2059
1885
1584
1328
1314
1571
2024
2496
2801
2845
2670
2427
2321
2441
2736
3090
3267
3131
2727
2191
1733
1527
1577
1788
1966
1936
1712
1349
1054
974
1133
1459
1799
1934
1828
1553
1187
981
1037
1295
1651
1887
1859
1598
1218
958
970
1217
1600
1904
1984
1840
1511
1197
1070
1186
1493
1808
1923
1807
1503
1179
1041
1168
1479
1835
2033
1986
1728
1365
1129
1120
1334
1694
1984
2039
1844
1459
1133
1055
1247
1615
1973
2154
2084
1813
1479
1314
1392
1669
2017
2239
2210
1963
1610
1363
1371
1587
1901
2165
2201
2022
1703
1386
1285
1430
1767
2112
2269
2176
1858
1495
1303
1365
1617
1938
2115
2055
1793
1435
1219
1230
1454
1790
2030
2033
1830
1465
1152
1071
1235
1595
1937
2081
1965
1647
1277
1102
1203
1503
1883
2126
2112
1885
1561
1341
1364
1599
1981
2284
2339
2165
1822
1507
1406
1569
1921
2273
2429
2323
2006
1667
1515
1623
1930
2279
2479
2426
2176
1836
1611
1635
1869
2214
2467
2493
2301
1952
1651
1585
1747
2102
2427
2559
2462
2155
1779
1573
1631
1868
2198
2398
2364
2128
1761
1505
1517
1751
2122
2394
2427
2235
1884
1585
1509
1667
1979
2281
2373
2230
1927
1615
1527
1750
2213
2771
3216
3413
3367
3179
3063
3175
3511
4090
4095
4095
3951
3303
2767
2455
2384
2483
2615
2579
2327
1930
1531
1331
1423
1744
2124
2352
2320
2073
1726
1495
1520
1767
2132
2402
2433
2238
1882
1594
1517
1687
2035
2379
2512
2384
2064
1713
1557
1671
1991
2362
2559
2508
2247
1883
1658
1693
1941
2318
2581
2610
2417
2083
1782
1718
1890
2237
2539
2647
2513
2205
1875
1742
1863
2179
2537
2745
2703
2433
2065
1795
1817
2069
2431
2701
2726
2527
2192
1906
1843
2013
2353
2663
2765
2619
2293
1942
1781
1862
2142
2467
2670
2608
2332
1973
1751
1783
2017
2378
2614
2592
2342
1973
1670
1599
1765
2093
2396
2512
2396
2080
1733
1566
1647
1930
2275
2454
2374
2096
1738
1505
1533
1783
2145
2398
2401
2192
1826
1535
1467
1641
1961
2255
2341
2207
1894
1574
1442
1575
1883
2225
2397
2326
2032
1683
1456
1487
1731
2087
2337
2353
2158
1794
1501
1475
1691
2033
2341
2430
2278
1933
1590
1443
1535
1830
2169
2342
2259
1968
1604
1376
1412
1665
2013
2265
2267
2055
1707
1424
1391
1581
1907
2214
2311
2174
1853
1520
1369
1456
1755
2060
2209
2118
1837
1479
1278
1344
1655
2090
2433
2556
2487
2308
2199
2314
2634
3086
3503
3667
3472
3039
2579
2288
2233
2355
2521
2541
2329
1947
1499
1204
1195
1421
1776
2045
2076
1885
1535
1278
1250
1440
1787
2096
2173
1999
1645
1331
1206
1338
1674
2035
2234
2167
1891
1535
1341
1391
1645
1985
2240
2256
2038
1680
1406
1371
1584
1930
2242
2336
2192
1891
1586
1463
1595
1915
2256
2418
2347
2069
1725
1525
1599
1871
2246
2507
2512
2307
1964
1686
1647
1839
2192
2497
2603
2450
2143
1826
1712
1840
2143
2482
2665
2595
2326
1981
1763
1792
2023
2355
2559
2557
2329
1983
1702
1658
1842
2181
2478
2559
2406
2069
1739
1591
1691
1985
2307
2454
2359
2079
1735
1533
1594
1833
2162
2387
2378
2160
1809
1531
1487
1664
1993
2287
2362
2204
1873
1535
1424
1557
1878
2224
2385
2306
2027
1674
1467
1517
1790
2160
2410
2406
2191
1838
1555
1511
1702
2041
2339
2415
2242
1909
1590
1479
1623
1941
2279
2421
2318
2015
1659
1450
1487
1745
2098
2331
2314
2068
1701
1426
1398
1597
1938
2246
2320
2160
1830
1507
1389
1507
1835
2171
2333
2242
1936
1572
1357
1407
1655
1984
2192
2155
1904
1555
1303
1333
1627
2096
2525
2768
2786
2609
2413
2391
2582
2931
3302
3443
3238
2795
2283
1910
1798
1918
2159
2288
2182
1876
1461
1168
1139
1349
1719
2027
2113
1946
1613
1295
1187
1341
1679
2021
2185
2083
1773
1410
1205
1277
1562
1933
2186
2180
1940
1593
1318
1287
1488
1847
2143
2213
2046
1721
1410
1315
1471
1799
2135
2285
2182
1890
1552
1360
1437
1727
2096
2335
2311
2081
1728
1461
1456
1681
2039
2343
2414
2242
1898
1587
1488
1649
1995
2354
2518
2426
2128
1775
1563
1627
1919
2279
2507
2458
2213
1843
1581
1570
1774
2141
2418
2461
2285
1936
1615
1495
1635
1953
2283
2418
2308
2002
1648
1450
1495
1769
2127
2363
2340
2095
1715
1433
1408
1618
1966
2253
2311
2138
1782
1455
1357
1509
1839
2175
2309
2197
1891
1535
1353
1425
1697
2061
2290
2272
2029
1695
1417
1397
1603
1950
2236
2288
2119
1789
1479
1392
1553
1888
2224
2363
2259
1957
1609
1417
1482
1755
2101
2315
2274
2015
1654
1386
1381
1600
1954
2245
2304
2131
1791
1459
1355
1493
1810
2128
2263
2160
1866
1518
1328
1407
1685
2039
2260
2224
1968
1595
1312
1288
1506
1902
2258
2410
2363
2186
2067
2176
2523
3039
3553
3888
3814
3449
3062
2825
2786
2914
3088
3088
2800
2331
1785
1369
1242
1360
1662
1916
1968
1803
1486
1202
1135
1296
1619
1941
2075
1955
1661
1323
1149
1232
1517
1872
2111
2082
1845
1507
1275
1281
1497
1845
2112
2144
1955
1639
1328
1247
1408
1744
2074
2199
2087
1789
1463
1317
1422
1717
2077
2287
2245
1986
1648
1393
1397
1625
1985
2277
2335
2163
1831
1535
1483
1663
2008
2350
2485
2375
2069
1723
1556
1648
1927
2285
2512
2497
2273
1926
1681
1685
1902
2249
2512
2545
2353
2005
1705
1617
1769
2089
2394
2501
2384
2077
1728
1562
1634
1896
2231
2417
2367
2103
1732
1463
1443
1651
1982
2231
2243
2037
1691
1407
1359
1520
1849
2150
2257
2126
1789
1431
1278
1390
1724
2111
2355
2350
2109
1743
1486
1475
1692
2023
2270
2267
2039
1667
1375
1329
1535
1915
2269
2404
2285
1970
1637
1461
1517
1717
1945
1998
1879
1627
1312
1155
1271
1635
2078
2373
2385
2140
1741
1391
1278
1415
1745
2103
2293
2263
2027
1733
1607
1735
2077
2471
2705
2639
2337
1955
1691
1658
1827
2133
2349
2349
2145
1819
1535
1461
1575
1854
2129
2207
2080
1857
1679
1701
1994
2534
3207
3870
4095
4059
3648
3382
3361
3553
3885
4021
3725
3209
2631
2146
1968
2064
2320
2591
2691
2581
2290
1973
1840
1975
2320
2703
2889
2806
2501
2114
1871
1917
2192
2606
2927
2987
2779
2384
2039
1935
2083
2394
2691
2751
2559
2215
1872
1776
1945
2289
2640
2809
2681
2319
1922
1683
1728
2025
2433
2750
2814
2615
2224
1869
1744
1898
2218
2511
2606
2427
2095
1758
1649
1861
2256
2683
2946
2960
2765
2485
2314
2351
2581
2914
3141
3106
2835
2434
2111
2017
2178
2493
2780
2869
2725
2400
2096
1968
2064
2290
2531
2618
2480
2176
1807
1589
1665
1968
2368
2635
2656
2432
2044
1717
1654
1857
2238
2583
2715
2551
2170
1774
1593
1695
2000
2365
2549
2458
2135
1699
1403
1399
1643
2000
2237
2176
1885
1499
1263
1294
1552
1883
2114
2078
1776
1328
951
863
1109
1639
2218
2532
2531
2272
1903
1687
1728
1941
2247
2443
2413
2185
1821
1521
1456
1603
1903
2177
2231
2054
1722
1422
1302
1394
1651
1922
2059
1998
1779
1473
1270
1319
1572
1931
2193
2231
2067
1775
1535
1527
1731
2065
2327
2370
2206
1861
1495
1296
1347
1603
1918
2099
2068
1893
1717
1728
2026
2527
3103
3579
3739
3492
3071
2688
2463
2407
2467
2504
2347
1997
1535
1198
1090
1151
1362
1631
1788
1729
1504
1232
1120
1210
1456
1790
2034
2110
2014
1778
1581
1558
1741
2054
2304
2353
2179
1827
1475
1362
1503
1859
2287
2555
2503
2186
1830
1666
1774
2030
2324
2465
2338
2017
1623
1360
1403
1685
2077
2338
2325
2143
1890
1684
1661
1866
2238
2657
2927
2903
2551
2085
1851
1939
2251
2649
2922
2982
2850
2549
2295
2283
2447
2738
2992
3059
2894
2540
2202
2099
2256
2586
2910
3053
2927
2586
2190
1951
1970
2222
2559
2707
2581
2259
1819
1474
1420
1667
2089
2381
2394
2202
1856
1535
1509
1773
2178
2559
2774
2714
2451
2121
1860
1845
2070
2399
2607
2523
2224
1798
1487
1451
1663
2011
2272
2249
1935
1459
1049
921
1100
1553
1979
2148
1957
1535
1149
1023
1255
1741
2279
2594
2550
2197
1598
1088
1001
1302
1801
2155
2185
1938
1458
851
425
560
1175
1894
2305
2326
1983
1456
1066
991
1291
1670
1863
1847
1639
1306
1142
1232
1510
1936
2288
2335
2098
1602
1079
791
779
1016
1341
1518
1479
1247
1015
929
1009
1264
1659
2069
2233
2127
1839
1769
2107
2694
3322
3808
3694
2975
2000
1110
651
797
1403
1986
2277
2221
1915
1569
1471
1599
1782
1983
2064
1840
1439
1038
803
867
1198
1626
1925
1917
1621
1152
762
629
777
1146
1525
1776
1739
1472
1217
1161
1359
1681
1993
2042
1683
1087
406
14
180
851
1750
2443
2729
2624
2235
1777
1456
1370
1471
1651
1680
1484
1247
1088
1231
1602
1962
2247
2358
2207
1822
1307
976
927
1116
1362
1519
1584
1659
1617
1483
1434
1563
1904
2225
2378
2253
1863
1307
819
739
1098
1511
1699
1621
1313
963
842
1040
1411
1872
2192
2195
1936
1582
1309
1222
1326
1451
1604
1631
1398
972
620
656
953
1407
1811
2003
1819
1477
1175
999
935
1009
1287
1726
2116
2255
2069
1791
1661
1683
1869
2133
2369
2421
2252
1957
1679
1461
1375
1415
1445
1449
1318
1053
923
1050
1479
2037
2457
2559
2346
1759
1125
773
827
1190
1566
1634
1504
1451
1535
1774
2112
2437
2658
2640
2319
1833
1337
1072
1147
1350
1610
1914
2117
2059
1671
1170
880
1017
1533
1990
2155
2018
1715
1375
1151
1130
1243
1385
1431
1415
1441
1505
1697
2103
2686
3313
3828
3985
3693
3208
2803
2620
2642
2817
2947
2859
2559
2103
1651
1391
1379
1559
1776
1820
1648
1344
998
784
835
1136
1574
1937
2100
2036
1803
1586
1575
1735
1979
2165
2164
1941
1638
1444
1515
1819
2262
2680
2913
2919
2757
2539
2442
2545
2800
3125
3339
3293
3006
2619
2352
2335
2546
2903
3215
3322
3197
2895
2602
2471
2583
2864
3216
3411
3306
2935
2511
2224
2218
2447
2801
3090
3169
3028
2745
2505
2464
2614
2906
3173
3235
3043
2695
2359
2197
2286
2598
2960
3167
3068
2768
2379
2124
2161
2459
2841
3129
3153
2950
2626
2370
2321
2480
2765
2965
2916
2630
2209
1871
1807
2021
2416
2800
2982
2896
2603
2213
1968
1975
2209
2544
2759
2741
2519
2178
1893
1831
1983
2291
2587
2692
2551
2223
1856
1654
1723
2026
2433
2722
2752
2555
2250
2032
2065
2287
2599
2783
2743
2526
2209
1952
1883
2005
2275
2530
2645
2543
2255
1936
1840
2007
2357
2736
2918
2803
2479
2097
1846
1839
2031
2361
2607
2622
2413
2082
1825
1818
2006
2321
2591
2643
2474
2141
1807
1671
1781
2064
2368
2517
2432
2123
1724
1491
1566
1897
2379
2786
2922
2778
2581
2512
2697
3090
3583
3989
3975
3551
3024
2593
2365
2357
2526
2731
2752
2539
2160
1729
1473
1485
1759
2097
2349
2319
2061
1691
1392
1346
1570
1962
2301
2386
2209
1849
1509
1392
1563
1901
2201
2279
2129
1829
1487
1301
1354
1593
1877
2007
1911
1671
1343
1104
1108
1389
1828
2176
2283
2163
1871
1596
1490
1598
1859
2135
2242
2121
1814
1443
1239
1266
1525
1869
2097
2124
1963
1695
1424
1383
1557
1845
2059
2032
1821
1484
1200
1168
1392
1729
1999
2032
1842
1489
1094
880
959
1265
1694
1951
1920
1618
1189
904
929
1167
1493
1744
1782
1598
1258
946
825
927
1215
1522
1642
1478
1133
726
479
477
668
976
1200
1211
1053
769
557
544
725
1044
1309
1368
1226
929
669
598
739
967
1212
1260
1086
755
425
272
383
703
1158
1491
1531
1285
901
624
575
750
1031
1291
1385
1330
1099
843
769
897
1179
1439
1511
1372
1078
748
559
586
794
1097
1291
1252
1009
687
481
542
762
1085
1349
1394
1239
940
685
626
778
1115
1436
1571
1428
1113
777
621
722
1034
1437
1721
1799
1714
1526
1455
1622
2014
2449
2717
2724
2512
2138
1774
1597
1627
1792
1945
1943
1743
1393
1008
769
767
967
1293
1556
1609
1444
1137
873
836
1004
1294
1518
1533
1376
1134
955
964
1139
1458
1769
1863
1734
1430
1137
988
1070
1307
1613
1788
1771
1572
1257
1035
1023
1227
1571
1846
1909
1744
1405
1099
971
1077
1363
1680
1847
1814
1642
1422
1345
1477
1773
2106
2301
2282
2071
1745
1492
1456
1623
1916
2147
2176
2020
1727
1456
1379
1515
1810
2096
2194
2092
1847
1596
1463
1534
1788
2118
2310
2250
1954
1570
1326
1331
1554
1881
2128
2186
2014
1680
1392
1306
1427
1701
1965
2071
1966
1706
1447
1366
1488
1769
2112
2317
2306
2096
1749
1496
1471
1673
2032
2346
2437
2298
2003
1711
1619
1739
2005
2288
2390
2288
2005
1705
1556
1627
1860
2175
2370
2357
2172
1863
1650
1638
1812
2126
2384
2417
2262
1968
1719
1664
1829
2153
2448
2556
2425
2103
1776
1618
1699
1964
2288
2480
2448
2215
1904
1728
1783
2059
2423
2686
2690
2460
2091
1781
1719
1879
2209
2534
2666
2512
2195
1889
1760
1875
2183
2544
2796
2837
2709
2499
2427
2606
2978
3487
3979
4095
3869
3422
3097
2977
3061
3280
3439
3356
3018
2532
2081
1811
1824
2058
2355
2512
2445
2205
1884
1686
1728
1968
2314
2553
2559
2371
2037
1735
1664
1815
2139
2429
2517
2382
2079
1739
1621
1742
2039
2396
2582
2516
2251
1885
1647
1651
1890
2266
2559
2631
2454
2122
1831
1769
1929
2227
2506
2559
2431
2133
1849
1749
1886
2192
2528
2711
2655
2413
2098
1901
1935
2176
2499
2734
2736
2533
2211
1961
1923
2096
2407
2698
2789
2643
2337
2027
1891
1998
2283
2602
2751
2690
2443
2127
1931
1973
2215
2526
2729
2713
2501
2172
1905
1857
2020
2335
2615
2689
2553
2269
1978
1855
1958
2223
2521
2672
2581
2321
2014
1840
1895
2135
2444
2658
2657
2448
2125
1862
1817
1984
2289
2558
2650
2511
2215
1913
1797
1921
2207
2499
2639
2559
2329
2031
1840
1858
2073
2381
2603
2595
2399
2081
1834
1814
1989
2305
2559
2640
2493
2203
1911
1797
1904
2189
2490
2631
2543
2287
1952
1745
1791
2010
2315
2507
2486
2290
1972
1730
1705
1882
2187
2443
2498
2343
2035
1769
1686
1809
2079
2367
2493
2393
2128
1802
1612
1648
1866
2178
2419
2480
2379
2211
2143
2306
2675
3199
3724
4048
3949
3568
3251
3123
3198
3406
3599
3519
3147
2621
2102
1759
1680
1810
2046
2221
2192
1983
1664
1451
1439
1639
1961
2222
2257
2096
1771
1467
1377
1510
1819
2133
2279
2195
1935
1615
1427
1490
1763
2104
2321
2314
2111
1802
1570
1559
1746
2063
2325
2384
2231
1936
1665
1583
1710
1991
2287
2412
2337
2096
1802
1655
1739
2000
2325
2529
2510
2295
1979
1757
1765
1967
2295
2559
2625
2473
2177
1911
1840
1984
2293
2623
2749
2626
2318
1970
1790
1847
2099
2425
2640
2614
2383
2047
1810
1810
2001
2321
2582
2619
2439
2118
1827
1740
1866
2160
2458
2559
2478
2193
1855
1681
1737
1996
2330
2528
2482
2239
1903
1663
1652
1855
2182
2438
2464
2290
1964
1680
1585
1723
2029
2346
2480
2369
2081
1750
1582
1664
1937
2285
2469
2418
2173
1829
1584
1575
1795
2119
2385
2431
2256
1921
1625
1531
1670
1987
2334
2475
2366
2067
1719
1555
1635
1905
2237
2427
2375
2127
1769
1520
1522
1742
2070
2329
2368
2187
1856
1561
1479
1639
1953
2270
2386
2261
1954
1616
1459
1558
1835
2160
2331
2261
2000
1647
1398
1407
1637
1979
2259
2333
2217
1985
1835
1918
2249
2757
3264
3570
3537
3253
2923
2753
2797
2990
3216
3264
3007
2537
2012
1587
1456
1584
1846
2053
2047
1840
1502
1237
1203
1383
1716
2026
2128
1989
1693
1371
1235
1357
1665
2000
2191
2138
1894
1558
1329
1341
1578
1932
2192
2214
2017
1682
1397
1339
1519
1843
2167
2276
2151
1846
1533
1392
1486
1771
2117
2320
2279
2026
1694
1467
1489
1730
2090
2353
2384
2199
1873
1611
1566
1738
2067
2382
2510
2391
2109
1808
1674
1762
2027
2338
2512
2459
2224
1901
1685
1711
1942
2285
2521
2533
2321
1982
1702
1647
1811
2139
2427
2509
2360
2035
1706
1555
1646
1907
2224
2397
2327
2064
1727
1500
1522
1754
2094
2334
2339
2128
1805
1507
1447
1605
1906
2192
2288
2151
1840
1523
1387
1489
1782
2111
2279
2211
1951
1613
1392
1425
1661
1988
2243
2251
2038
1705
1440
1392
1555
1871
2167
2256
2143
1830
1520
1404
1513
1807
2137
2304
2233
1974
1647
1446
1486
1715
2031
2258
2263
2042
1711
1419
1366
1535
1860
2159
2225
2091
1782
1471
1344
1459
1759
2083
2218
2119
1842
1520
1339
1383
1639
1967
2219
2197
1979
1621
1323
1248
1421
1761
2080
2212
2165
1965
1802
1856
2167
2661
3187
3539
3581
3335
3009
2811
2817
2977
3198
3248
3023
2593
2054
1607
1413
1488
1709
1936
1974
1819
1511
1227
1125
1264
1589
1919
2074
1981
1707
1359
1162
1208
1465
1812
2043
2023
1798
1461
1224
1225
1445
1793
2080
2144
1971
1664
1350
1241
1375
1696
2037
2210
2130
1865
1535
1353
1407
1658
2001
2231
2223
2000
1674
1424
1439
1664
2013
2301
2365
2206
1893
1597
1474
1613
1927
2261
2430
2353
2087
1754
1579
1648
1920
2269
2499
2495
2287
1945
1680
1648
1835
2171
2451
2512
2347
2014
1702
1587
1713
2006
2320
2453
2352
2068
1723
1529
1594
1854
2192
2416
2401
2176
1815
1535
1504
1698
2019
2287
2333
2158
1822
1506
1397
1527
1839
2158
2291
2179
1879
1531
1343
1415
1683
2032
2245
2213
1974
1632
1377
1358
1565
1889
2167
2221
2064
1733
1423
1317
1455
1778
2110
2249
2144
1854
1513
1341
1421
1706
2058
2280
2257
2033
1709
1457
1450
1664
1987
2257
2304
2119
1775
1466
1375
1520
1838
2145
2267
2142
1827
1485
1328
1395
1666
1998
2219
2176
1929
1565
1321
1319
1535
1895
2177
2219
2041
1715
1403
1302
1439
1742
2041
2173
2064
1785
1517
1435
1631
2043
2545
2945
3111
3045
2843
2719
2797
3070
3493
3853
3809
3389
2836
2321
2000
1939
2065
2219
2223
2014
1659
1283
1088
1166
1456
1827
2046
2023
1795
1463
1232
1235
1461
1813
2096
2139
1957
1628
1333
1254
1413
1747
2069
2192
2077
1786
1472
1310
1397
1680
2015
2227
2203
1970
1638
1395
1398
1623
1968
2231
2285
2115
1793
1503
1431
1600
1904
2240
2375
2277
1986
1659
1498
1591
1872
2219
2420
2384
2154
1828
1627
1667
1899
2239
2501
2535
2359
2031
1727
1648
1803
2125
2437
2543
2418
2125
1806
1652
1737
2002
2341
2533
2471
2206
1841
1594
1585
1786
2111
2347
2345
2145
1801
1495
1421
1581
1881
2191
2304
2191
1904
1594
1451
1535
1823
2134
2308
2240
1985
1637
1397
1392
1583
1865
2063
2042
1827
1483
1264
1271
1488
1887
2249
2393
2268
1936
1595
1439
1530
1797
2123
2285
2213
1936
1587
1374
1398
1631
1971
2237
2273
2099
1769
1474
1399
1572
1907
2224
2322
2181
1877
1535
1383
1463
1741
2043
2187
2070
1748
1357
1118
1181
1505
1945
2273
2329
2151
1809
1506
1399
1503
1791
2109
2254
2168
1887
1594
1456
1572
1871
2234
2415
2343
2077
1686
1390
1343
1535
1909
2223
2330
2240
2031
1894
1993
2324
2813
3281
3505
3393
3031
2608
2331
2304
2459
2645
2668
2439
2033
1552
1235
1200
1413
1754
1984
1942
1700
1357
1127
1163
1461
1931
2295
2369
2173
1791
1409
1251
1391
1728
2083
2256
2192
1919
1584
1414
1499
1791
2174
2427
2445
2226
1865
1574
1520
1712
2059
2352
2443
2299
1982
1675
1556
1681
1979
2318
2483
2414
2147
1820
1625
1687
1946
2308
2559
2559
2371
2046
1788
1757
1949
2295
2591
2671
2512
2198
1881
1743
1841
2136
2466
2638
2557
2275
1926
1727
1771
2015
2352
2559
2530
2288
1936
1671
1659
1876
2240
2542
2623
2451
2110
1747
1594
1703
2006
2332
2480
2384
2099
1747
1552
1615
1878
2235
2471
2459
2231
1879
1615
1585
1786
2138
2437
2513
2358
2023
1697
1583
1713
2027
2372
2533
2448
2162
1825
1641
1711
1980
2346
2590
2579
2352
1999
1727
1702
1910
2274
2586
2671
2499
2167
1839
1709
1826
2127
2448
2608
2511
2230
1887
1693
1743
1995
2335
2559
2539
2277
1874
1589
1535
1727
2067
2355
2411
2250
1919
1605
1490
1635
1936
2263
2402
2302
2002
1667
1472
1535
1805
2142
2343
2299
2041
1664
1389
1353
1535
1904
2207
2293
2174
1913
1714
1759
2067
2539
3010
3299
3283
3033
2722
2530
2559
2751
2991
3086
2882
2462
1939
1517
1360
1456
1716
1936
1958
1771
1442
1153
1082
1258
1600
1936
2080
1968
1671
1322
1142
1205
1461
1795
1984
1931
1694
1360
1152
1179
1404
1738
2032
2095
1920
1589
1289
1221
1389
1727
2047
2195
2107
1819
1480
1305
1391
1665
2000
2215
2179
1946
1617
1364
1374
1597
1936
2219
2288
2128
1815
1520
1447
1603
1915
2234
2352
2237
1962
1655
1507
1606
1879
2214
2411
2357
2112
1755
1503
1507
1747
2130
2444
2510
2342
2010
1732
1638
1761
2038
2317
2402
2265
1959
1631
1474
1581
1860
2192
2383
2329
2080
1727
1477
1467
1664
1981
2237
2256
2075
1744
1456
1375
1520
1831
2133
2238
2106
1789
1453
1303
1401
1681
1999
2175
2096
1825
1483
1286
1340
1595
1951
2160
2155
1955
1680
1494
1479
1649
1954
2237
2323
2195
1895
1584
1435
1521
1779
2069
2210
2115
1859
1535
1348
1380
1616
1968
2231
2256
2042
1680
1365
1270
1399
1689
1990
2151
2085
1825
1520
1368
1455
1726
2066
2277
2239
1995
1659
1440
1461
1685
1999
2199
2160
1904
1525
1216
1136
1303
1664
2032
2188
2078
1788
1499
1472
1803
2364
2964
3440
3602
3411
3051
2775
2727
2880
3131
3266
3139
2781
2304
1878
1654
1664
1821
1961
1922
1711
1367
1081
1006
1171
1494
1832
1984
1883
1593
1232
1021
1079
1360
1765
2073
2109
1878
1471
1104
976
1085
1404
1709
1844
1760
1505
1247
1152
1289
1587
1930
2112
2034
1771
1439
1220
1252
1493
1852
2115
2142
1951
1609
1328
1269
1441
1783
2107
2238
2144
1862
1562
1441
1557
1858
2196
2397
2347
2097
1774
1570
1609
1835
2183
2443
2480
2302
1966
1681
1629
1810
2160
2489
2626
2515
2223
1889
1723
1808
2093
2407
2580
2496
2204
1872
1664
1711
1955
2299
2529
2519
2288
1919
1631
1567
1742
2070
2355
2434
2282
1957
1636
1500
1617
1939
2255
2416
2333
2053
1705
1483
1525
1771
2117
2351
2352
2147
1795
1510
1470
1677
2033
2343
2413
2207
1818
1472
1383
1566
1921
2304
2485
2384
2075
1695
1482
1535
1811
2175
2429
2427
2221
1859
1584
1535
1730
2078
2364
2430
2266
1926
1588
1455
1579
1899
2255
2419
2319
2002
1618
1387
1418
1671
2022
2256
2231
1990
1623
1328
1283
1488
1866
2194
2288
2141
1837
1535
1425
1581
1891
2205
2319
2190
1872
1488
1274
1344
1650
2066
2378
2454
2325
2085
1943
2093
2442
2925
3360
3549
3408
3061
2722
2535
2559
2722
2867
2822
2541
2099
1610
1302
1278
1475
1793
2011
2001
1797
1457
1207
1200
1413
1774
2078
2144
1974
1645
1315
1206
1343
1654
1984
2132
2027
1759
1459
1308
1397
1695
2064
2279
2234
1991
1641
1365
1338
1514
1852
2157
2258
2149
1872
1604
1499
1616
1899
2190
2327
2238
1958
1631
1456
1535
1834
2191
2403
2373
2146
1809
1565
1565
1787
2150
2473
2559
2431
2112
1814
1725
1871
2195
2518
2652
2522
2214
1883
1747
1872
2172
2507
2694
2615
2323
1907
1587
1510
1677
1998
2325
2481
2417
2157
1858
1741
1843
2128
2423
2539
2422
2128
1791
1600
1664
1907
2235
2413
2351
2111
1739
1442
1404
1609
1967
2275
2321
2112
1695
1371
1290
1482
1840
2123
2171
2014
1748
1487
1438
1652
2041
2437
2627
2498
2149
1730
1439
1419
1655
2021
2309
2375
2234
1950
1695
1637
1790
2095
2384
2487
2330
1990
1627
1438
1523
1812
2176
2378
2313
2042
1678
1457
1520
1762
2093
2352
2395
2215
1856
1504
1378
1502
1807
2105
2223
2119
1819
1457
1286
1381
1673
2031
2261
2235
1981
1625
1406
1456
1727
2110
2346
2354
2141
1783
1520
1535
1830
2315
2798
3099
3139
2959
2735
2645
2779
3071
3427
3579
3389
2959
2414
1969
1786
1858
2079
2224
2180
1997
1715
1479
1462
1662
2032
2365
2476
2303
1894
1428
1187
1247
1535
1906
2142
2127
1890
1535
1295
1322
1600
1981
2269
2310
2117
1743
1387
1266
1423
1777
2128
2277
2169
1863
1521
1371
1482
1795
2157
2343
2299
2054
1712
1445
1426
1600
1906
2186
2274
2141
1859
1641
1637
1825
2160
2439
2497
2325
1984
1633
1473
1601
1942
2355
2593
2553
2308
1943
1680
1659
1851
2186
2457
2517
2355
2010
1717
1642
1776
2063
2356
2483
2375
2090
1767
1621
1697
1921
2211
2357
2263
2000
1687
1535
1647
1955
2385
2735
2809
2602
2193
1814
1642
1712
1965
2207
2258
2112
1793
1456
1293
1408
1745
2125
2320
2185
1795
1358
1105
1119
1375
1808
2129
2208
2035
1712
1430
1364
1521
1831
2047
2067
1850
1481
1138
1037
1200
1535
1882
2035
1943
1660
1315
1119
1163
1455
1840
2123
2145
1950
1611
1339
1299
1471
1770
1985
1959
1716
1360
1040
932
1098
1463
1871
2087
2015
1744
1409
1203
1251
1506
1863
2099
2075
1840
1518
1293
1283
1488
1819
2090
2123
1933
1609
1337
1321
1616
2134
2711
3126
3259
3143
2914
2806
2916
3230
3679
4028
3891
3397
2835
2379
2141
2128
2299
2474
2469
2254
1854
1455
1267
1344
1634
1951
2109
2025
1781
1418
1234
1283
1523
1855
2046
1991
1778
1509
1329
1331
1525
1883
2219
2338
2211
1889
1555
1419
1535
1843
2173
2333
2243
1968
1622
1410
1467
1733
2081
2304
2283
2070
1746
1502
1502
1714
2057
2338
2373
2179
1866
1597
1526
1714
2073
2442
2627
2547
2283
1957
1771
1835
2099
2432
2634
2550
2224
1789
1531
1594
1907
2395
2767
2840
2672
2363
2096
2005
2139
2433
2758
2901
2767
2464
2112
1890
1918
2159
2480
2677
2635
2374
2001
1733
1710
1899
2207
2452
2480
2292
1968
1681
1613
1791
2127
2425
2511
2356
2018
1677
1508
1594
1863
2191
2352
2274
2031
1715
1490
1520
1739
2111
2382
2402
2189
1821
1472
1356
1501
1840
2177
2327
2234
1949
1625
1445
1525
1792
2130
2320
2245
1936
1510
1213
1185
1408
1793
2146
2285
2179
1891
1616
1562
1761
2111
2404
2457
2245
1834
1439
1269
1369
1698
2090
2334
2310
2066
1702
1427
1411
1634
1995
2264
2273
2047
1714
1427
1286
1328
1584
1877
2034
1971
1731
1397
1205
1275
1552
1903
2112
2042
1767
1473
1401
1626
2080
2662
3173
3381
3313
3046
2777
2699
2807
3045
3248
3202
2867
2350
1805
1436
1368
1511
1734
1806
1612
1237
832
641
743
1065
1482
1802
1841
1648
1280
949
854
1023
1392
1750
1903
1795
1487
1122
927
1023
1329
1709
1917
1841
1574
1250
1069
1125
1344
1628
1807
1792
1559
1200
951
935
1117
1443
1778
1923
1840
1574
1301
1229
1399
1726
2081
2265
2194
1926
1567
1341
1383
1631
1986
2274
2277
2027
1618
1261
1136
1280
1612
1949
2091
1998
1721
1349
1130
1189
1470
1847
2092
2087
1881
1583
1420
1493
1789
2192
2506
2605
2467
2193
1963
1918
2067
2343
2587
2661
2519
2254
1947
1808
1921
2239
2609
2821
2766
2448
2026
1744
1744
2001
2402
2688
2701
2483
2155
1911
1926
2181
2559
2895
2979
2783
2415
2027
1833
1911
2194
2538
2739
2711
2495
2165
1918
1907
2114
2432
2662
2679
2496
2175
1925
1872
2017
2292
2519
2559
2426
2123
1814
1690
1791
2065
2370
2531
2465
2214
1872
1622
1628
1869
2243
2533
2606
2448
2165
1919
1854
1974
2255
2535
2621
2496
2198
1897
1777
1905
2211
2554
2739
2655
2379
2032
1811
1843
2076
2388
2615
2633
2481
2214
2013
2033
2276
2669
3053
3297
3381
3326
3225
3265
3506
3947
4095
4095
4095
3879
3363
3017
2887
2916
3043
3097
2917
2559
2109
1742
1633
1770
2087
2412
2583
2548
2352
2113
1979
2047
2288
2559
2779
2803
2690
2475
2329
2354
2539
2791
2961
2927
2707
2394
2166
2185
2461
2854
3148
3210
3031
2708
2384
2225
2304
2559
2871
3057
3034
2831
2544
2366
2416
2661
3007
3293
3309
3058
2709
2422
2338
2477
2769
3042
3131
2995
2799
2641
2628
2754
2974
3178
3243
3151
2940
2707
2579
2650
2884
3190
3398
3397
3197
2890
2665
2638
2782
3055
3312
3376
3215
2866
2490
2295
2335
2544
2823
2987
2956
2756
2480
2298
2307
2494
2779
2963
2929
2736
2464
2288
2320
2512
2832
3103
3127
2927
2598
2287
2145
2219
2435
2672
2753
2641
2411
2175
2080
2183
2430
2747
2992
3021
2864
2559
2278
2133
2160
2323
2491
2521
2384
2133
1914
1859
2007
2299
2607
2769
2693
2406
2031
1779
1789
2014
2339
2559
2587
2407
2139
1918
1893
2046
2320
2532
2548
2371
2064
1783
1714
1846
2133
2409
2537
2456
2219
1917
1741
1782
1987
2256
2437
2417
2205
1887
1654
1647
1830
2111
2317
2352
2198
1885
1630
1531
1698
2063
2459
2738
2819
2736
2605
2586
2750
3065
3446
3728
3665
3354
2967
2638
2449
2421
2497
2535
2416
2143
1776
1466
1369
1495
1767
2026
2112
1975
1693
1383
1218
1275
1494
1793
1975
1939
1717
1395
1156
1125
1271
1523
1735
1749
1583
1282
1017
951
1087
1361
1645
1755
1653
1392
1117
989
1102
1388
1712
1872
1808
1571
1243
1036
1053
1255
1561
1795
1837
1710
1456
1238
1190
1332
1623
1908
2046
1967
1719
1442
1312
1407
1662
1968
2164
2143
1938
1647
1430
1449
1648
1923
2141
2157
1977
1678
1409
1332
1465
1777
2109
2288
2262
2047
1770
1609
1641
1827
2064
2179
2096
1840
1515
1290
1264
1415
1669
1863
1899
1744
1455
1221
1174
1312
1583
1840
1931
1808
1535
1269
1130
1199
1425
1698
1845
1802
1608
1355
1198
1233
1434
1744
1938
1925
1741
1477
1311
1329
1488
1739
1937
1977
1833
1566
1286
1167
1234
1454
1767
1935
1891
1681
1398
1215
1239
1459
1775
2000
2026
1872
1621
1397
1331
1438
1695
1937
2031
1923
1665
1392
1265
1328
1522
1749
1855
1770
1553
1314
1178
1232
1424
1707
1909
1929
1791
1554
1355
1329
1474
1751
2002
2071
1923
1631
1325
1169
1238
1469
1746
1900
1855
1664
1418
1322
1455
1789
2219
2547
2666
2559
2342
2142
2090
2213
2448
2646
2666
2470
2128
1751
1489
1459
1615
1838
1949
1849
1585
1255
1061
1079
1253
1511
1698
1712
1562
1290
1075
1043
1195
1477
1735
1813
1717
1488
1251
1147
1199
1393
1641
1761
1687
1463
1199
1037
1078
1285
1583
1791
1831
1708
1428
1154
1037
1121
1355
1591
1664
1556
1317
1074
976
1089
1342
1605
1721
1602
1346
1059
914
1011
1287
1657
1922
1967
1808
1519
1278
1218
1339
1605
1841
1917
1804
1570
1327
1231
1338
1612
1902
2055
1998
1749
1432
1228
1250
1469
1761
1951
1927
1729
1413
1167
1126
1277
1557
1794
1859
1728
1456
1179
1066
1157
1419
1703
1835
1743
1485
1194
1019
1072
1291
1585
1771
1759
1535
1239
1009
982
1157
1461
1712
1795
1648
1366
1093
987
1104
1375
1661
1776
1681
1427
1141
997
1083
1330
1649
1853
1825
1614
1290
1043
1008
1181
1479
1729
1787
1637
1344
1090
1020
1168
1457
1750
1875
1773
1504
1175
991
1040
1267
1585
1780
1755
1535
1244
1009
1006
1200
1517
1777
1838
1675
1370
1098
996
1125
1420
1723
1866
1776
1517
1205
1053
1119
1349
1655
1845
1811
1610
1309
1109
1146
1409
1811
2176
2349
2334
2182
2032
2030
2209
2512
2815
2946
2815
2491
2112
1840
1779
1903
2105
2205
2111
1839
1475
1215
1183
1369
1683
1949
2025
1897
1623
1367
1295
1428
1715
1990
2111
2005
1744
1435
1273
1339
1584
1899
2085
2059
1855
1570
1358
1359
1535
1837
2066
2096
1935
1648
1395
1334
1473
1748
2034
2167
2091
1859
1597
1458
1522
1758
2038
2233
2202
2001
1723
1520
1526
1734
2032
2279
2320
2191
1913
1664
1594
1717
1983
2253
2358
2257
2004
1727
1594
1680
1934
2239
2423
2400
2193
1897
1681
1667
1818
2080
2301
2337
2195
1920
1663
1585
1696
1947
2194
2287
2173
1909
1623
1475
1535
1767
2046
2207
2160
1954
1670
1475
1483
1675
1950
2160
2191
2030
1757
1518
1453
1583
1847
2109
2202
2097
1841
1569
1426
1495
1739
2031
2218
2186
1989
1709
1494
1497
1678
1954
2183
2224
2082
1816
1569
1495
1638
1911
2175
2287
2193
1954
1680
1567
1646
1879
2160
2320
2287
2096
1807
1625
1642
1831
2114
2319
2330
2161
1878
1648
1600
1747
2022
2283
2379
2272
2021
1749
1631
1709
1938
2218
2379
2339
2128
1842
1663
1669
1844
2112
2321
2347
2187
1898
1665
1628
1795
2114
2434
2619
2605
2470
2335
2351
2553
2889
3255
3478
3440
3177
2811
2535
2447
2499
2644
2721
2612
2333
1963
1643
1519
1616
1871
2125
2213
2095
1821
1561
1458
1581
1835
2113
2255
2185
1951
1657
1469
1496
1712
2015
2239
2258
2093
1804
1571
1529
1691
1981
2249
2333
2210
1937
1669
1568
1675
1936
2224
2381
2319
2097
1807
1635
1680
1904
2219
2447
2461
2286
2000
1771
1744
1915
2222
2490
2587
2463
2191
1910
1796
1915
2192
2501
2669
2597
2369
2091
1913
1950
2171
2466
2681
2677
2480
2173
1921
1878
2039
2338
2599
2661
2507
2208
1908
1776
1866
2118
2400
2530
2439
2187
1882
1713
1767
1989
2288
2495
2479
2275
1974
1743
1705
1863
2148
2369
2402
2226
1915
1617
1498
1612
1886
2193
2327
2239
1984
1691
1521
1589
1839
2142
2352
2351
2160
1861
1627
1602
1772
2065
2319
2375
2224
1919
1616
1519
1658
1977
2317
2496
2447
2206
1903
1728
1781
2009
2307
2496
2489
2341
2102
1922
1920
2085
2338
2544
2559
2391
2095
1808
1712
1836
2125
2415
2550
2497
2260
1972
1807
1869
2093
2416
2671
2683
2491
2199
1973
1951
2111
2397
2663
2734
2602
2320
2046
1946
2045
2299
2559
2688
2603
2357
2086
1955
2064
2384
2841
3274
3550
3600
3430
3281
3311
3515
3925
4095
4095
3813
3229
2707
2385
2305
2415
2578
2614
2455
2167
1845
1666
1726
1959
2279
2496
2501
2327
2061
1861
1867
2058
2347
2593
2640
2480
2189
1919
1840
1962
2230
2493
2599
2497
2262
2007
1889
1962
2179
2451
2621
2579
2373
2086
1875
1874
2071
2379
2642
2714
2559
2287
2013
1925
2060
2325
2603
2714
2624
2371
2102
1968
2064
2319
2638
2837
2818
2609
2302
2078
2073
2263
2559
2802
2832
2665
2373
2118
2047
2183
2443
2694
2789
2674
2410
2112
1958
2016
2243
2530
2701
2654
2436
2135
1911
1887
2054
2339
2559
2591
2420
2121
1850
1758
1871
2135
2406
2512
2411
2151
1866
1729
1807
2037
2326
2491
2443
2224
1927
1726
1740
1920
2197
2416
2436
2265
1978
1729
1671
1805
2079
2347
2447
2349
2099
1810
1666
1735
1966
2256
2427
2374
2161
1863
1665
1682
1879
2175
2416
2448
2290
2007
1759
1684
1817
2091
2353
2448
2346
2098
1823
1690
1774
2000
2284
2439
2388
2167
1869
1671
1686
1884
2176
2399
2423
2262
1981
1734
1678
1810
2083
2335
2419
2305
2047
1776
1648
1719
1953
2235
2390
2345
2122
1824
1627
1648
1855
2177
2447
2529
2444
2260
2159
2240
2501
2896
3289
3479
3376
3088
2770
2559
2559
2688
2851
2870
2673
2317
1917
1632
1584
1728
1987
2195
2210
2032
1753
1517
1487
1651
1941
2211
2295
2170
1890
1612
1474
1567
1818
2107
2267
2211
1974
1678
1493
1535
1765
2071
2288
2299
2122
1819
1584
1535
1699
1988
2256
2342
2222
1951
1665
1535
1633
1889
2185
2347
2288
2087
1810
1649
1701
1936
2255
2469
2463
2281
1978
1744
1712
1895
2198
2475
2558
2426
2130
1837
1719
1822
2085
2398
2559
2489
2247
1937
1767
1802
2006
2303
2495
2483
2293
1967
1713
1671
1834
2123
2368
2421
2272
1977
1706
1600
1702
1968
2259
2391
2307
2078
1773
1584
1615
1824
2128
2330
2307
2111
1778
1517
1472
1648
1957
2224
2303
2162
1873
1599
1482
1584
1847
2128
2266
2189
1936
1628
1450
1491
1727
2032
2240
2234
2032
1709
1485
1456
1637
1934
2193
2257
2119
1831
1563
1461
1584
1857
2132
2251
2160
1898
1600
1443
1509
1755
2069
2269
2256
2047
1761
1526
1502
1663
1945
2179
2227
2081
1796
1527
1440
1567
1840
2135
2271
2191
1936
1639
1455
1509
1744
2047
2256
2240
2032
1727
1494
1469
1643
1915
2150
2187
2035
1779
1527
1490
1680
2026
2389
2622
2649
2527
2364
2303
2419
2677
2983
3165
3088
2778
2359
2003
1856
1899
2086
2246
2229
2029
1706
1405
1302
1423
1705
1991
2126
2047
1803
1511
1362
1424
1642
1950
2134
2112
1919
1621
1399
1383
1554
1847
2079
2125
1972
1702
1457
1389
1535
1825
2110
2224
2124
1859
1573
1423
1489
1731
2038
2233
2208
1995
1701
1488
1495
1694
1994
2240
2288
2141
1857
1603
1533
1681
1973
2259
2384
2294
2033
1759
1617
1690
1941
2256
2443
2409
2191
1898
1667
1662
1850
2157
2384
2413
2244
1947
1689
1615
1745
2015
2287
2384
2276
2011
1716
1559
1622
1849
2132
2295
2250
2028
1712
1488
1497
1696
1995
2227
2259
2115
1817
1567
1491
1623
1890
2155
2244
2128
1862
1575
1424
1494
1727
2027
2215
2181
1969
1670
1466
1473
1667
1955
2177
2194
2026
1742
1495
1431
1579
1843
2104
2192
2079
1818
1535
1407
1491
1739
2017
2177
2119
1879
1579
1373
1392
1600
1909
2147
2188
2019
1729
1477
1421
1567
1850
2111
2192
2069
1793
1503
1365
1451
1707
2003
2171
2121
1899
1603
1407
1431
1630
1936
2149
2160
1970
1680
1431
1383
1535
1841
2106
2192
2074
1789
1486
1347
1425
1692
2006
2219
2218
2063
1837
1729
1859
2186
2607
2927
3001
2843
2559
2331
2269
2381
2599
2763
2735
2481
2094
1686
1462
1477
1671
1925
2057
1982
1750
1461
1287
1328
1535
1853
2069
2074
1890
1598
1350
1303
1457
1754
2017
2104
1981
1712
1445
1334
1443
1712
2003
2160
2097
1854
1553
1361
1405
1627
1929
2145
2151
1968
1684
1444
1409
1597
1901
2173
2260
2142
1873
1601
1483
1593
1863
2167
2330
2271
2047
1759
1593
1648
1877
2194
2418
2423
2240
1940
1695
1659
1826
2128
2393
2475
2342
2061
1776
1663
1765
2026
2305
2437
2355
2109
1799
1617
1663
1879
2181
2381
2368
2166
1854
1607
1562
1719
2015
2269
2335
2177
1885
1591
1488
1603
1877
2179
2317
2240
1998
1706
1530
1571
1778
2066
2258
2241
2034
1737
1499
1467
1645
1931
2173
2225
2074
1778
1489
1396
1519
1803
2098
2241
2163
1911
1620
1443
1485
1711
2000
2205
2187
1983
1684
1453
1439
1634
1941
2203
2266
2125
1829
1535
1443
1571
1858
2137
2276
2198
1951
1651
1472
1520
1744
2042
2238
2221
2009
1707
1472
1457
1641
1939
2192
2250
2101
1809
1535
1446
1569
1847
2138
2257
2170
1905
1603
1429
1477
1709
1997
2191
2173
1967
1661
1437
1426
1616
1934
2219
2331
2273
2096
1947
1996
2267
2686
3101
3328
3275
3021
2719
2540
2549
2702
2889
2949
2769
2405
1954
1607
1492
1600
1836
2030
2051
1888
1619
1355
1291
1421
1710
1973
2099
1996
1739
1443
1298
1376
1626
1923
2112
2087
1862
1593
1382
1386
1584
1879
2129
2182
2029
1748
1488
1422
1558
1838
2112
2223
2119
1861
1575
1431
1519
1775
2087
2281
2261
2064
1777
1579
1585
1777
2079
2320
2378
2235
1962
1716
1665
1819
2112
2389
2507
2407
2149
1859
1719
1798
2041
2339
2507
2469
2259
1969
1763
1761
1947
2229
2448
2475
2309
2011
1752
1685
1827
2105
2373
2472
2356
2090
1783
1630
1689
1919
2194
2361
2315
2102
1799
1595
1594
1776
2047
2289
2307
2132
1828
1563
1488
1631
1905
2174
2272
2160
1896
1603
1466
1555
1797
2112
2282
2224
1988
1690
1482
1499
1698
1987
2212
2235
2064
1763
1515
1458
1610
1903
2162
2255
2138
1862
1581
1455
1554
1817
2115
2277
2211
1978
1675
1467
1487
1694
1995
2234
2257
2099
1815
1570
1511
1667
1953
2215
2296
2160
1875
1594
1443
1520
1776
2053
2209
2134
1893
1581
1393
1419
1633
1933
2160
2179
2003
1712
1461
1419
1585
1873
2140
2209
2082
1811
1506
1373
1471
1727
2015
2186
2158
1983
1776
1698
1863
2224
2685
3063
3230
3151
2895
2679
2642
2787
3041
3235
3200
2902
2448
1984
1687
1645
1783
1991
2079
1961
1697
1383
1200
1239
1459
1775
1997
2000
1823
1523
1282
1245
1412
1717
1981
2059
1926
1649
1366
1264
1375
1651
1952
2106
2043
1830
1518
1342
1405
1641
1953
2177
2182
1995
1695
1456
1429
1611
1917
2191
2275
2158
1878
1602
1491
1616
1895
2192
2352
2296
2081
1787
1616
1664
1882
2197
2416
2425
2261
1984
1771
1763
1935
2241
2502
2559
2421
2140
1863
1754
1860
2123
2410
2559
2493
2255
1967
1776
1808
2019
2311
2506
2486
2284
1970
1735
1702
1867
2146
2391
2447
2288
1985
1701
1583
1681
1935
2205
2331
2245
1985
1693
1520
1575
1795
2112
2304
2274
2064
1746
1511
1483
1669
1968
2224
2279
2133
1853
1583
1481
1595
1868
2150
2273
2181
1929
1627
1454
1503
1743
2042
2242
2227
2027
1717
1474
1453
1629
1932
2199
2278
2160
1872
1611
1513
1642
1910
2192
2315
2229
1985
1689
1535
1595
1809
2119
2294
2267
2047
1744
1518
1509
1715
1993
2242
2295
2151
1863
1586
1489
1611
1878
2158
2275
2186
1936
1643
1489
1555
1777
2081
2267
2242
2018
1719
1499
1488
1664
1952
2192
2233
2099
1843
1649
1659
1904
2316
2741
3021
3091
2958
2750
2640
2727
2959
3246
3361
3213
2859
2416
2054
1889
1935
2118
2269
2223
2012
1679
1386
1308
1439
1747
2039
2167
2075
1813
1524
1375
1435
1664
1959
2142
2114
1906
1619
1393
1397
1607
1926
2182
2226
2065
1773
1514
1440
1584
1860
2143
2256
2150
1891
1616
1487
1582
1832
2137
2305
2274
2064
1773
1582
1600
1823
2130
2373
2421
2271
1982
1738
1680
1835
2128
2413
2529
2438
2192
1915
1791
1887
2149
2454
2640
2606
2373
2080
1869
1887
2087
2382
2608
2624
2438
2135
1873
1799
1930
2200
2453
2541
2414
2143
1839
1683
1745
1967
2239
2387
2335
2118
1837
1648
1673
1869
2160
2368
2368
2180
1858
1587
1505
1649
1936
2205
2291
2167
1885
1584
1430
1503
1763
2076
2255
2213
1985
1654
1458
1467
1670
1970
2193
2207
2033
1729
1483
1429
1584
1871
2141
2229
2112
1839
1554
1424
1520
1787
2090
2256
2198
1968
1669
1471
1485
1689
1984
2211
2237
2069
1783
1531
1483
1644
1929
2192
2278
2157
1878
1591
1457
1535
1807
2096
2245
2185
1938
1627
1419
1438
1642
1937
2174
2192
2007
1714
1476
1453
1628
1919
2191
2273
2145
1870
1584
1457
1553
1805
2081
2219
2147
1906
1634
1494
1603
1911
2333
2687
2837
2798
2623
2479
2512
2719
3031
3307
3330
3088
2669
2240
1969
1923
2038
2211
2256
2101
1787
1437
1232
1280
1513
1856
2086
2089
1895
1601
1361
1329
1491
1786
2032
2097
1959
1689
1418
1319
1431
1707
1999
2142
2075
1840
1561
1389
1439
1666
1981
2171
2176
1998
1701
1458
1443
1626
1936
2192
2262
2130
1851
1579
1467
1584
1856
2167
2327
2277
2046
1787
1610
1678
1913
2224
2434
2431
2245
1947
1742
1743
1941
2257
2523
2599
2454
2174
1897
1791
1901
2160
2437
2557
2469
2221
1920
1757
1807
2019
2313
2493
2464
2254
1936
1691
1657
1818
2103
2342
2391
2240
1954
1687
1583
1683
1945
2227
2352
2256
1984
1673
1492
1535
1775
2070
2263
2247
2037
1727
1501
1501
1690
1984
2224
2270
2112
1811
1535
1434
1559
1830
2105
2223
2137
1886
1589
1425
1485
1718
2021
2221
2192
1983
1675
1445
1437
1629
1925
2175
2224
2074
1789
1523
1440
1573
1849
2129
2240
2149
1897
1606
1445
1513
1755
2064
2256
2229
2010
1702
1472
1459
1648
1947
2191
2240
2082
1789
1522
1447
1584
1854
2138
2243
2143
1883
1600
1453
1531
1801
2089
2263
2226
2005
1699
1486
1477
1659
1949
2179
2224
2096
1856
1680
1708
1954
2352
2758
3011
3028
2858
2623
2502
2591
2831
3110
3227
3083
2723
2273
1906
1765
1831
2023
2187
2163
1962
1648
1381
1310
1457
1757
2045
2174
2086
1826
1527
1391
1472
1729
2031
2205
2169
1936
1623
1417
1435
1650
1971
2230
2279
2117
1827
1535
1447
1570
1849
2128
2234
2131
1870
1586
1451
1535
1797
2098
2272
2225
2007
1712
1518
1535
1771
2085
2321
2351
2182
1890
1646
1595
1751
2064
2350
2463
2355
2103
1829
1723
1833
2099
2400
2550
2496
2267
1955
1759
1777
1971
2297
2533
2559
2395
2098
1833
1758
1893
2162
2404
2467
2327
2055
1767
1639
1731
1979
2265
2416
2353
2116
1806
1595
1609
1825
2138
2368
2383
2199
1887
1631
1563
1696
1975
2231
2316
2192
1917
1626
1501
1591
1837
2127
2288
2224
1996
1701
1513
1535
1749
2044
2255
2255
2076
1791
1535
1502
1671
1968
2238
2318
2185
1901
1612
1491
1614
1882
2176
2334
2256
2007
1707
1520
1559
1775
2082
2315
2335
2160
1847
1590
1520
1663
1949
2229
2307
2176
1888
1594
1461
1563
1827
2128
2274
2207
1967
1664
1475
1520
1742
2061
2277
2288
2112
1808
1565
1518
1669
1959
2224
2293
2156
1857
1565
1453
1574
1859
2210
2407
2395
2233
2029
1970
2146
2471
2864
3141
3161
2950
2627
2359
2281
2368
2559
2721
2672
2411
2031
1670
1495
1552
1777
2031
2149
2064
1813
1520
1357
1415
1669
1995
2207
2197
1994
1681
1435
1410
1594
1902
2175
2233
2095
1811
1530
1434
1535
1824
2115
2253
2171
1930
1658
1478
1535
1791
2103
2308
2305
2114
1815
1583
1535
1707
2000
2266
2332
2198
1927
1671
1585
1719
2002
2302
2435
2352
2113
1827
1677
1743
1985
2301
2507
2483
2292
1998
1776
1758
1923
2213
2453
2509
2367
2083
1809
1717
1842
2117
2387
2497
2399
2133
1816
1645
1698
1921
2227
2430
2410
2202
1887
1658
1636
1807
2111
2335
2375
2226
1931
1663
1580
1696
1963
2236
2353
2263
1996
1685
1516
1580
1821
2131
2327
2299
2093
1783
1565
1535
1712
2000
2245
2287
2135
1842
1585
1520
1667
1939
2224
2341
2240
1969
1668
1515
1589
1837
2135
2321
2289
2078
1767
1535
1535
1741
2031
2264
2305
2149
1851
1586
1502
1639
1919
2192
2308
2209
1927
1648
1491
1575
1811
2103
2269
2229
2000
1698
1498
1509
1707
2003
2239
2266
2093
1798
1557
1491
1645
1926
2202
2305
2197
1935
1645
1494
1583
1815
2099
2255
2203
1987
1715
1563
1641
1920
2315
2659
2804
2753
2542
2338
2290
2429
2691
2935
2992
2805
2445
2047
1794
1764
1919
2130
2245
2141
1875
1554
1345
1368
1584
1904
2138
2161
1999
1695
1427
1369
1523
1821
2105
2196
2085
1819
1530
1399
1488
1749
2044
2214
2166
1943
1643
1437
1453
1664
1970
2204
2234
2081
1798
1561
1502
1666
1955
2224
2309
2193
1925
1648
1521
1619
1875
2178
2359
2327
2119
1824
1633
1655
1863
2171
2393
2415
2247
1959
1712
1659
1807
2106
2370
2473
2372
2115
1839
1710
1795
2046
2335
2480
2417
2197
1875
1679
1695
1897
2186
2399
2418
2244
1943
1685
1617
1744
2005
2255
2334
2199
1938
1664
1535
1626
1871
2160
2306
2240
2005
1705
1509
1529
1729
2000
2207
2222
2041
1760
1520
1473
1623
1900
2153
2229
2112
1836
1558
1442
1535
1799
2092
2232
2163
1923
1629
1451
1483
1709
2011
2226
2227
2046
1756
1515
1474
1630
1908
2163
2239
2114
1841
1570
1456
1564
1830
2135
2287
2217
1979
1684
1491
1519
1718
2000
2205
2198
2004
1712
1473
1431
1597
1898
2131
2195
2063
1790
1531
1446
1574
1823
2107
2233
2155
1904
1605
1429
1471
1690
1969
2159
2139
1938
1616
1411
1383
1570
1901
2207
2352
2315
2157
2017
2054
2272
2622
2959
3120
3023
2748
2406
2174
2117
2214
2379
2455
2328
2036
1670
1378
1314
1455
1741
1979
2034
1911
1657
1402
1317
1440
1711
1983
2112
2029
1779
1474
1296
1340
1564
1861
2069
2063
1861
1571
1344
1327
1505
1807
2061
2130
2000
1728
1456
1365
1495
1788
2083
2208
2129
1888
1606
1457
1509
1744
2058
2253
2241
2053
1771
1565
1569
1761
2064
2309
2364
2224
1942
1680
1599
1729
2002
2293
2421
2350
2124
1843
1703
1771
2006
2295
2473
2449
2255
1963
1735
1713
1883
2162
2384
2419
2265
1974
1712
1619
1742
2005
2273
2374
2258
1978
1665
1499
1571
1808
2101
2279
2247
2057
1763
1535
1535
1713
1985
2200
2223
2064
1771
1498
1414
1535
1823
2096
2205
2102
1847
1553
1402
1450
1677
1966
2155
2122
1919
1629
1426
1428
1610
1889
2109
2133
1995
1727
1472
1399
1526
1794
2064
2167
2067
1830
1573
1441
1517
1743
2009
2176
2141
1936
1661
1473
1493
1693
1987
2205
2229
2065
1771
1502
1429
1567
1847
2115
2223
2115
1845
1553
1407
1483
1714
1999
2161
2115
1895
1600
1403
1419
1622
1918
2150
2183
2026
1738
1472
1392
1506
1776
2015
2117
2031
1814
1607
1567
1762
2128
2559
2886
2996
2903
2693
2550
2596
2807
3102
3281
3195
2874
2417
2023
1808
1814
1968
2125
2130
1952
1651
1355
1235
1333
1600
1901
2071
2026
1809
1517
1315
1327
1511
1808
2023
2046
1897
1616
1370
1313
1463
1738
1995
2093
1987
1747
1499
1393
1487
1735
2017
2179
2133
1921
1648
1456
1495
1711
2010
2233
2241
2071
1791
1562
1510
1655
1930
2192
2306
2223
1980
1725
1621
1727
1991
2288
2443
2395
2186
1920
1757
1806
2023
2325
2534
2542
2366
2087
1849
1806
1954
2226
2463
2538
2402
2134
1867
1743
1825
2058
2318
2459
2387
2147
1837
1648
1670
1867
2155
2349
2337
2157
1874
1638
1598
1739
2003
2237
2289
2151
1882
1608
1483
1573
1813
2096
2240
2171
1934
1653
1485
1523
1734
1999
2215
2202
1999
1695
1456
1424
1594
1869
2130
2207
2083
1805
1527
1418
1529
1790
2065
2209
2142
1910
1623
1456
1499
1726
2026
2225
2208
2013
1701
1470
1445
1621
1905
2166
2242
2123
1856
1599
1495
1602
1858
2137
2261
2177
1931
1648
1479
1522
1751
2033
2215
2192
1995
1710
1489
1482
1662
1942
2178
2237
2102
1839
1579
1485
1595
1852
2112
2224
2138
1890
1599
1417
1463
1695
2000
2223
2251
2128
1914
1790
1893
2196
2628
3015
3203
3149
2912
2673
2583
2684
2895
3091
3099
2867
2465
2030
1735
1671
1793
1993
2118
2055
1830
1525
1310
1303
1509
1815
2083
2144
1996
1721
1472
1395
1530
1809
2087
2199
2107
1857
1567
1419
1482
1715
1999
2177
2145
1941
1671
1479
1483
1671
1968
2215
2270
2129
1871
1627
