2064
2449
2608
2357
1849
1335
1130
1327
1803
2320
2605
2494
2099
1648
1427
1623
2149
2829
3367
3483
3152
2544
2031
1840
1957
2320
2623
2589
2191
1569
976
746
938
1458
2032
2335
2207
1757
1197
858
945
1377
1949
2375
2395
2065
1535
1143
1104
1425
1975
2437
2547
2295
1779
1265
1071
1275
1770
2319
2555
2409
1972
1446
1152
1266
1696
2247
2623
2605
2234
1680
1279
1263
1588
2139
2587
2699
2432
1916
1434
1273
1505
2015
2555
2814
2653
2198
1667
1375
1485
1903
2448
2816
2783
2433
1887
1472
1426
1744
2288
2768
2867
2581
2037
1555
1393
1627
2117
2627
2833
2627
2128
1570
1286
1411
1856
2393
2722
2652
2266
1699
1277
1248
1596
2159
2602
2658
2323
1761
1280
1146
1393
1914
2423
2634
2433
1955
1408
1139
1281
1735
2292
2636
2559
2168
1609
1213
1221
1584
2128
2544
2614
2304
1755
1278
1145
1399
1927
2441
2640
2447
1957
1408
1133
1271
1714
2247
2554
2468
2075
1523
1168
1227
1616
2174
2583
2608
2279
1735
1263
1162
1456
1993
2481
2653
2435
1945
1415
1168
1322
1787
2345
2649
2555
2149
1569
1181
1205
1555
2077
2470
2495
2176
1631
1178
1094
1389
1914
2391
2559
2342
1846
1326
1093
1277
1748
2281
2558
2448
2044
1521
1171
1235
1614
2139
2506
2503
2173
1631
1169
1070
1346
1905
2416
2616
2454
2031
1649
1559
1876
2477
3137
3569
3513
3024
2402
1946
1840
2043
2403
2598
2421
1937
1315
832
752
1067
1634
2131
2273
2007
1474
993
846
1087
1591
2144
2431
2304
1877
1331
1023
1135
1558
2135
2513
2510
2167
1622
1187
1105
1409
1958
2437
2593
2353
1855
1347
1152
1360
1867
2394
2645
2502
2061
1518
1216
1309
1729
2285
2656
2641
2292
1751
1342
1317
1664
2219
2688
2801
2546
2066
1602
1456
1686
2160
2677
2926
2736
2261
1715
1407
1520
1967
2537
2902
2845
2443
1886
1484
1455
1776
2321
2766
2832
2528
1984
1488
1315
1535
2027
2521
2750
2559
2091
1554
1259
1376
1799
2357
2711
2627
2211
1639
1226
1207
1535
2097
2527
2599
2290
1760
1275
1130
1386
1910
2447
2669
2455
1951
1414
1149
1296
1746
2288
2607
2512
2126
1555
1170
1203
1567
2107
2532
2590
2270
1712
1217
1072
1342
1895
2405
2592
2381
1893
1365
1113
1250
1690
2224
2531
2464
2094
1584
1221
1232
1583
2114
2543
2608
2293
1737
1270
1150
1410
1949
2460
2654
2444
1958
1408
1137
1283
1744
2273
2559
2448
2032
1477
1105
1123
1502
2062
2450
2475
2166
1628
1191
1093
1360
1882
2384
2559
2353
1843
1310
1092
1271
1738
2287
2593
2471
2033
1471
1117
1141
1509
2079
2512
2590
2313
1863
1517
1535
1957
2641
3282
3607
3408
2873
2288
1952
1984
2283
2605
2667
2352
1767
1113
741
796
1200
1772
2189
2213
1867
1328
912
873
1210
1792
2297
2434
2183
1649
1167
981
1206
1716
2269
2550
2430
2000
1465
1134
1209
1615
2169
2548
2542
2215
1678
1232
1153
1465
2023
2506
2641
2384
1857
1360
1190
1411
1919
2470
2735
2559
2114
1552
1234
1344
1799
2399
2804
2790
2431
1861
1435
1411
1758
2342
2841
2963
2678
2140
1617
1421
1635
2130
2662
2916
2738
2256
1693
1381
1488
1922
2475
2834
2802
2416
1839
1383
1328
1664
2201
2666
2767
2480
1911
1380
1200
1428
1950
2479
2710
2527
2035
1464
1147
1257
1687
2238
2589
2523
2145
1589
1167
1118
1456
2009
2474
2559
2288
1767
1277
1126
1372
1902
2403
2613
2415
1924
1359
1082
1243
1703
2255
2591
2513
2114
1535
1159
1146
1482
2047
2485
2533
2214
1667
1173
1052
1305
1839
2377
2608
2383
1895
1353
1095
1267
1744
2298
2617
2543
2143
1578
1186
1213
1584
2143
2582
2631
2304
1739
1226
1085
1344
1886
2399
2605
2384
1882
1328
1053
1179
1645
2225
2559
2483
2064
1477
1085
1113
1494
2037
2454
2512
2204
1648
1182
1072
1355
1895
2383
2559
2334
1814
1270
1046
1235
1718
2259
2559
2499
2128
1646
1351
1490
1996
2674
3221
3371
3115
2603
2139
1983
2148
2526
2835
2800
2366
1675
1003
670
803
1303
1890
2209
2112
1685
1123
782
851
1287
1890
2331
2368
2046
1509
1070
1001
1324
1892
2389
2543
2302
1778
1249
1059
1287
1791
2335
2621
2491
2057
1466
1116
1191
1614
2185
2587
2602
2271
1733
1306
1242
1557
2114
2592
2740
2489
1985
1472
1267
1467
1978
2545
2845
2710
2259
1717
1392
1478
1915
2497
2899
2896
2527
1951
1505
1456
1773
2336
2830
2966
2704
2154
1637
1435
1643
2126
2624
2843
2688
2231
1680
1328
1419
1855
2430
2793
2719
2323
1751
1314
1262
1579
2119
2585
2687
2407
1873
1365
1191
1398
1902
2423
2672
2500
2031
1478
1167
1266
1684
2243
2618
2594
2225
1660
1213
1183
1519
2064
2506
2623
2365
1805
1297
1146
1392
1920
2455
2695
2507
2011
1454
1147
1253
1703
2275
2615
2538
2146
1587
1195
1198
1553
2128
2581
2660
2339
1796
1314
1181
1431
1967
2479
2667
2455
1966
1410
1138
1293
1772
2330
2654
2587
2183
1600
1207
1215
1562
2114
2550
2633
2337
1789
1307
1186
1443
1959
2466
2624
2395
1883
1345
1100
1264
1769
2337
2644
2522
2098
1525
1149
1167
1519
2096
2513
2559
2256
1717
1255
1151
1415
1949
2466
2686
2512
2085
1642
1490
1758
2301
2951
3410
3393
3009
2448
2006
1909
2112
2481
2699
2527
2039
1372
850
735
1023
1606
2147
2322
2096
1600
1087
880
1099
1615
2207
2514
2407
1968
1407
1055
1129
1552
2129
2533
2559
2247
1712
1275
1198
1483
2026
2496
2640
2409
1921
1410
1200
1392
1870
2405
2695
2559
2157
1637
1328
1412
1815
2359
2742
2742
2391
1815
1360
1299
1645
2224
2734
2896
2642
2126
1611
1414
1640
2160
2730
3013
2861
2384
1798
1446
1524
1954
2518
2896
2870
2496
1937
1488
1424
1738
2273
2746
2855
2602
2078
1534
1328
1535
2034
2547
2809
2650
2175
1601
1280
1366
1792
2335
2701
2672
2310
1731
1267
1205
1552
2128
2602
2704
2425
1890
1365
1164
1374
1899
2423
2655
2482
2032
1488
1205
1325
1757
2304
2657
2621
2231
1642
1234
1232
1607
2176
2633
2714
2406
1840
1314
1148
1394
1919
2455
2717
2544
2074
1516
1213
1305
1733
2277
2609
2534
2146
1616
1266
1283
1648
2207
2646
2736
2447
1904
1387
1213
1456
1984
2523
2747
2544
2045
1473
1183
1312
1770
2320
2668
2601
2200
1638
1220
1200
1535
2119
2550
2625
2321
1785
1309
1168
1414
1956
2451
2631
2389
1877
1331
1089
1271
1744
2313
2640
2544
2117
1520
1152
1189
1581
2125
2581
2671
2411
1936
1554
1531
1920
2555
3166
3453
3275
2767
2175
1805
1823
2146
2543
2693
2439
1891
1241
845
887
1287
1874
2293
2320
1998
1475
1037
956
1255
1819
2347
2549
2338
1838
1296
1089
1286
1771
2330
2627
2508
2081
1535
1205
1274
1696
2275
2675
2682
2319
1743
1291
1210
1507
2059
2559
2747
2502
1972
1451
1242
1456
1967
2517
2812
2693
2247
1674
1322
1399
1823
2387
2767
2768
2410
1831
1392
1350
1705
2289
2803
2960
2708
2177
1637
1406
1595
2082
2615
2879
2742
2309
1757
1424
1492
1883
2411
2773
2761
2414
1859
1440
1409
1732
2259
2706
2799
2490
1925
1387
1199
1427
1943
2481
2763
2605
2101
1491
1152
1237
1669
2222
2559
2541
2174
1615
1201
1186
1523
2091
2559
2677
2386
1861
1389
1200
1398
1899
2419
2651
2487
2035
1475
1142
1255
1702
2256
2619
2559
2176
1585
1164
1168
1535
2128
2602
2681
2384
1813
1297
1135
1386
1913
2452
2688
2489
1978
1423
1119
1258
1738
2320
2671
2608
2197
1633
1249
1261
1618
2169
2593
2647
2361
1830
1337
1168
1375
1862
2378
2589
2385
1898
1343
1079
1231
1679
2240
2559
2498
2111
1535
1123
1127
1484
2065
2502
2559
2256
1728
1264
1127
1392
1917
2397
2557
2323
1811
1262
1008
1172
1663
2251
2615
2559
2215
1729
1450
1589
2062
2727
3271
3386
3023
2407
1845
1579
1675
2064
2416
2430
2069
1463
893
649
826
1317
1893
2241
2173
1749
1170
815
895
1333
1919
2327
2349
1991
1412
955
899
1219
1771
2266
2434
2221
1680
1154
942
1136
1613
2131
2416
2304
1874
1298
935
999
1405
1979
2368
2355
2007
1456
1019
932
1255
1830
2326
2485
2247
1703
1145
912
1126
1648
2218
2503
2369
1903
1347
1006
1091
1529
2128
2543
2515
2159
1584
1120
1052
1359
1910
2402
2559
2339
1812
1271
1041
1219
1711
2263
2535
2388
1911
1311
936
1005
1429
2003
2402
2406
2076
1499
1040
964
1296
1872
2375
2512
2241
1685
1125
901
1092
1600
2159
2433
2298
1840
1268
944
1040
1456
2019
2404
2397
2065
1518
1100
1042
1360
1911
2384
2511
2250
1711
1200
993
1221
1744
2262
2482
2299
1818
1254
931
1047
1493
2107
2496
2471
2097
1534
1105
1076
1411
1982
2465
2591
2306
1759
1237
1078
1347
1902
2439
2686
2497
1995
1400
1077
1209
1680
2250
2595
2517
2116
1535
1104
1098
1473
2043
2499
2586
2295
1744
1225
1074
1335
1868
2383
2594
2409
1930
1388
1130
1294
1743
2289
2629
2558
2161
1601
1221
1218
1569
2112
2546
2623
2325
1777
1291
1152
1423
1950
2477
2735
2559
2145
1719
1584
1847
2414
3106
3613
3603
3136
2474
1951
1776
1934
2293
2544
2460
2064
1472
990
880
1171
1715
2243
2427
2212
1712
1175
939
1129
1644
2255
2617
2552
2151
1590
1222
1250
1616
2188
2624
2672
2352
1791
1346
1251
1533
2077
2559
2723
2493
2001
1487
1278
1482
1988
2557
2877
2768
2342
1788
1413
1439
1828
2407
2839
2875
2526
1982
1535
1466
1787
2349
2839
3007
2797
2303
1778
1561
1744
2224
2799
3122
2992
2538
1971
1588
1633
2057
2655
3088
3066
2661
2078
1630
1554
1867
2414
2913
3053
2759
2209
1664
1423
1622
2119
2661
2954
2846
2399
1823
1437
1465
1840
2409
2815
2787
2399
1808
1346
1277
1597
2164
2651
2787
2523
1985
1471
1260
1474
1973
2506
2769
2621
2158
1580
1259
1341
1762
2343
2733
2705
2327
1745
1279
1199
1521
2101
2623
2765
2512
1945
1390
1163
1364
1863
2417
2705
2559
2079
1489
1154
1236
1658
2211
2590
2559
2173
1594
1198
1199
1535
2131
2608
2690
2379
1777
1242
1052
1291
1851
2399
2630
2423
1950
1407
1080
1165
1566
2094
2432
2406
2027
1441
1023
1037
1418
1999
2441
2494
2199
1661
1167
989
1216
1743
2286
2512
2321
1838
1275
989
1131
1585
2147
2480
2413
1983
1377
975
979
1344
1937
2448
2607
2373
1906
1492
1446
1827
2479
3133
3440
3216
2647
1984
1520
1437
1681
2071
2266
2082
1587
976
567
582
961
1569
2045
2122
1811
1280
826
714
993
1582
2147
2375
2177
1683
1124
843
1008
1507
2105
2432
2368
1975
1394
992
1005
1403
1981
2391
2425
2118
1569
1089
973
1267
1831
2368
2585
2391
1909
1354
1077
1225
1710
2303
2657
2595
2189
1607
1217
1261
1679
2255
2695
2727
2390
1854
1424
1343
1639
2183
2685
2870
2653
2138
1594
1347
1520
1994
2521
2817
2717
2297
1734
1360
1413
1824
2371
2784
2813
2480
1910
1434
1335
1632
2189
2663
2790
2507
1972
1431
1189
1365
1871
2439
2739
2606
2128
1535
1175
1241
1664
2256
2672
2673
2319
1734
1258
1189
1509
2062
2541
2678
2433
1897
1354
1136
1345
1855
2409
2694
2559
2117
1535
1199
1263
1694
2275
2679
2663
2295
1727
1269
1206
1535
2096
2579
2717
2477
1952
1418
1216
1409
1918
2466
2736
2591
2145
1614
1281
1392
1811
2374
2753
2737
2379
1810
1363
1311
1656
2218
2698
2806
2531
1982
1449
1245
1438
1951
2521
2788
2623
2127
1535
1221
1339
1786
2346
2719
2688
2310
1733
1290
1238
1586
2160
2618
2702
2416
1885
1382
1207
1425
1936
2466
2706
2529
2044
1498
1216
1345
1806
2429
2843
2839
2512
2047
1776
1903
2367
3056
3705
3897
3456
2751
2098
1759
1789
2109
2442
2496
2194
1634
1045
757
911
1398
1998
2363
2317
1911
1360
967
999
1409
2015
2485
2559
2288
1755
1278
1146
1415
1939
2448
2659
2470
2001
1472
1198
1342
1809
2384
2704
2606
2170
1584
1199
1221
1606
2214
2677
2728
2410
1857
1373
1239
1520
2062
2586
2791
2587
2112
1598
1328
1472
1937
2513
2875
2818
2432
1871
1455
1459
1835
2416
2876
2947
2619
2032
1535
1431
1723
2271
2778
2944
2689
2128
1562
1314
1507
1991
2537
2819
2679
2239
1663
1286
1315
1699
2266
2667
2688
2337
1741
1251
1149
1421
1962
2473
2657
2407
1856
1279
1020
1213
1706
2275
2601
2467
1998
1399
1040
1100
1488
2071
2462
2471
2128
1558
1076
963
1259
1820
2301
2475
2251
1730
1199
960
1148
1640
2191
2448
2292
1840
1264
912
980
1395
2000
2413
2442
2096
1513
1047
951
1251
1813
2310
2450
2198
1670
1158
971
1185
1691
2229
2481
2339
1891
1330
1005
1089
1522
2112
2506
2467
2046
1429
960
889
1200
1780
2294
2437
2160
1594
1058
860
1088
1587
2128
2391
2229
1754
1187
880
981
1454
2031
2403
2359
1969
1353
938
899
1246
1801
2274
2393
2123
1566
1040
851
1110
1678
2260
2553
2469
2106
1648
1456
1713
2271
2960
3460
3447
2972
2259
1632
1375
1511
1880
2141
2096
1730
1136
640
523
784
1338
1882
2119
1942
1450
899
638
793
1306
1927
2325
2295
1909
1329
923
922
1285
1861
2334
2442
2160
1615
1115
955
1209
1745
2282
2507
2322
1841
1307
1042
1215
1700
2273
2613
2512
2080
1488
1104
1150
1566
2159
2608
2672
2359
1810
1335
1214
1518
2111
2682
2918
2726
2234
1685
1417
1573
2045
2640
2987
2890
2470
1903
1516
1535
1920
2481
2911
2957
2620
2041
1535
1398
1677
2224
2729
2913
2694
2174
1626
1372
1552
2020
2559
2863
2735
2270
1675
1290
1313
1687
2263
2703
2747
2394
1811
1335
1217
1489
2038
2559
2743
2493
1967
1429
1195
1353
1826
2387
2705
2599
2129
1535
1153
1213
1619
2201
2624
2637
2282
1712
1258
1169
1478
2035
2532
2690
2447
1927
1361
1099
1277
1772
2335
2639
2513
2073
1497
1148
1219
1643
2230
2662
2673
2331
1753
1298
1219
1535
2119
2628
2770
2511
1970
1429
1217
1429
1951
2503
2783
2624
2133
1522
1154
1219
1658
2255
2672
2661
2288
1685
1201
1121
1457
2069
2559
2688
2414
1865
1344
1155
1387
1914
2471
2737
2592
2127
1531
1191
1295
1737
2337
2723
2683
2298
1725
1280
1245
1603
2256
2827
3051
2894
2469
2090
2033
2371
3002
3729
4095
3845
3083
2304
1778
1648
1863
2267
2482
2354
1936
1359
934
926
1302
1894
2385
2525
2294
1776
1296
1155
1409
1947
2505
2774
2608
2133
1602
1327
1466
1953
2542
2896
2820
2395
1822
1424
1442
1832
2418
2892
2990
2679
2119
1621
1478
1748
2285
2819
3039
2832
2326
1788
1520
1680
2150
2729
3099
3035
2627
2080
1707
1718
2096
2687
3195
3299
2970
2401
1907
1783
2061
2602
3143
3370
3157
2637
2066
1776
1930
2402
2976
3333
3242
2787
2189
1780
1794
2165
2742
3183
3223
2862
2282
1776
1631
1875
2384
2866
3059
2837
2307
1751
1488
1643
2108
2678
2991
2885
2454
1861
1477
1509
1890
2448
2864
2896
2530
1941
1456
1358
1648
2203
2714
2877
2624
2091
1535
1296
1472
1967
2522
2814
2688
2256
1695
1313
1359
1749
2331
2755
2781
2444
1875
1399
1296
1587
2128
2623
2780
2539
2000
1488
1273
1459
1938
2480
2768
2655
2225
1691
1354
1410
1792
2352
2764
2769
2411
1840
1403
1339
1669
2215
2686
2803
2523
1988
1443
1216
1421
1923
2475
2744
2586
2107
1525
1178
1255
1685
2279
2691
2688
2311
1723
1262
1211
1535
2122
2590
2703
2418
1889
1360
1147
1360
1901
2465
2755
2626
2147
1558
1250
1391
1899
2586
3088
3169
2875
2389
2057
2096
2496
3119
3618
3613
3056
2258
1475
1056
1088
1461
1930
2155
1998
1535
1011
731
845
1290
1887
2301
2315
1968
1414
1003
991
1360
1971
2471
2598
2320
1786
1285
1102
1334
1872
2418
2672
2504
2039
1473
1175
1296
1755
2329
2703
2655
2263
1698
1310
1308
1679
2258
2719
2784
2477
1931
1424
1264
1517
2083
2643
2879
2694
2234
1703
1424
1578
2043
2631
2979
2886
2481
1936
1561
1569
1925
2471
2914
2991
2655
2091
1600
1477
1776
2322
2842
3024
2791
2283
1733
1452
1587
2035
2606
2928
2813
2378
1792
1395
1421
1786
2334
2743
2749
2393
1826
1367
1262
1525
2046
2529
2690
2455
1963
1421
1153
1303
1766
2309
2621
2515
2099
1533
1169
1215
1620
2194
2606
2617
2283
1738
1277
1175
1456
1978
2449
2621
2390
1885
1360
1133
1287
1757
2314
2615
2482
2046
1473
1148
1223
1605
2146
2526
2510
2160
1616
1170
1100
1409
1982
2496
2677
2449
1931
1378
1131
1294
1791
2350
2663
2577
2160
1590
1203
1235
1619
2179
2559
2554
2192
1612
1177
1121
1410
1953
2446
2586
2318
1808
1284
1095
1305
1810
2351
2617
2478
2032
1431
1101
1168
1568
2128
2509
2496
2135
1535
1099
1047
1373
1968
2482
2638
2410
1885
1390
1255
1570
2162
2817
3226
3200
2825
2323
2027
2071
2385
2809
3009
2786
2203
1445
848
688
964
1524
2003
2150
1914
1399
898
745
1008
1583
2148
2431
2285
1840
1318
1023
1149
1601
2185
2559
2544
2170
1616
1221
1199
1509
2075
2555
2670
2391
1861
1361
1194
1437
1970
2511
2741
2555
2078
1535
1261
1379
1838
2400
2778
2739
2334
1763
1360
1375
1765
2358
2829
2924
2626
2074
1571
1403
1657
2191
2737
2970
2791
2343
1825
1535
1683
2123
2663
2986
2899
2497
1915
1504
1504
1841
2410
2843
2907
2608
2075
1598
1453
1689
2194
2679
2861
2641
2138
1594
1307
1451
1927
2499
2832
2735
2307
1719
1306
1303
1661
2224
2655
2688
2352
1792
1310
1188
1467
2030
2559
2769
2537
2015
1438
1170
1341
1824
2385
2706
2625
2192
1607
1223
1264
1673
2234
2672
2703
2357
1776
1292
1182
1456
1973
2491
2681
2476
1975
1442
1215
1399
1887
2453
2763
2659
2220
1647
1260
1296
1685
2266
2689
2727
2394
1834
1353
1252
1562
2102
2594
2743
2490
1946
1391
1143
1319
1808
2373
2689
2550
2096
1490
1126
1189
1612
2166
2559
2597
2263
1728
1281
1202
1498
2044
2525
2665
2413
1878
1325
1104
1323
1847
2399
2662
2517
2065
1487
1130
1200
1635
2256
2726
2784
2479
1986
1635
1678
2127
2799
3371
3581
3269
2646
2005
1646
1648
1932
2282
2410
2176
1645
1041
705
818
1287
1898
2301
2281
1923
1374
960
930
1265
1838
2331
2469
2226
1719
1238
1101
1355
1871
2395
2626
2438
1968
1421
1113
1230
1683
2261
2644
2626
2266
1695
1276
1235
1568
2138
2619
2715
2422
1887
1395
1257
1514
2032
2559
2830
2681
2208
1637
1319
1429
1883
2465
2849
2814
2442
1891
1490
1501
1873
2464
2915
2967
2643
2079
1602
1452
1694
2217
2727
2934
2739
2251
1687
1387
1523
1984
2535
2864
2786
2377
1808
1388
1370
1743
2298
2739
2795
2466
1890
1392
1263
1526
2064
2587
2768
2539
2029
1446
1162
1308
1754
2304
2645
2559
2130
1535
1160
1190
1564
2125
2555
2639
2345
1781
1291
1168
1440
1975
2471
2649
2425
1917
1366
1098
1265
1766
2338
2647
2541
2117
1535
1158
1201
1583
2129
2544
2591
2266
1711
1259
1203
1519
2090
2559
2691
2442
1929
1399
1169
1350
1840
2385
2681
2559
2128
1535
1167
1218
1627
2210
2615
2590
2207
1633
1174
1088
1406
1954
2425
2554
2320
1819
1280
1067
1260
1753
2301
2592
2458
2002
1438
1099
1185
1622
2181
2559
2547
2182
1603
1135
1043
1362
1954
2457
2611
2354
1840
1343
1182
1469
2079
2723
3136
3119
2752
2258
1963
2006
2343
2795
3015
2789
2214
1459
887
753
1030
1611
2066
2215
1983
1470
960
787
1008
1532
2101
2365
2225
1781
1247
958
1079
1525
2107
2503
2497
2135
1535
1079
1040
1393
1974
2444
2542
2259
1723
1227
1071
1297
1820
2383
2640
2477
2000
1434
1131
1254
1680
2251
2626
2619
2261
1723
1327
1296
1633
2197
2669
2758
2454
1922
1447
1305
1556
2090
2630
2860
2685
2225
1715
1424
1535
1965
2507
2842
2772
2379
1817
1421
1410
1770
2335
2781
2829
2503
1937
1424
1264
1521
2072
2613
2846
2643
2130
1558
1261
1391
1854
2418
2762
2674
2267
1691
1280
1278
1653
2214
2640
2703
2384
1813
1328
1215
1479
2027
2527
2734
2510
2005
1453
1198
1376
1858
2416
2731
2629
2203
1634
1252
1267
1613
2201
2625
2653
2320
1783
1328
1244
1525
2064
2551
2752
2543
2041
1500
1246
1419
1891
2446
2757
2661
2258
1711
1331
1360
1744
2314
2754
2784
2431
1831
1355
1270
1584
2119
2612
2772
2523
1995
1438
1203
1387
1869
2410
2714
2613
2166
1601
1258
1328
1741
2303
2716
2739
2394
1797
1328
1247
1586
2148
2658
2815
2541
1986
1439
1222
1417
1906
2471
2774
2659
2221
1643
1267
1342
1776
2391
2892
3018
2779
2321
1981
1999
2389
3010
3583
3716
3255
2531
1823
1424
1477
1843
2281
2485
2331
1886
1347
1023
1107
1520
2087
2482
2471
2144
1623
1201
1169
1520
2111
2596
2745
2480
1938
1419
1222
1428
1965
2523
2797
2651
2193
1623
1318
1417
1846
2416
2794
2764
2367
1792
1358
1344
1712
2309
2799
2905
2624
2102
1603
1417
1635
2149
2688
2947
2781
2306
1751
1460
1585
2027
2608
2998
2941
2542
1993
1613
1591
1925
2487
2969
3071
2763
2224
1728
1578
1799
2304
2851
3098
2893
2368
1801
1503
1616
2056
2627
2991
2915
2490
1909
1488
1489
1845
2395
2829
2883
2558
1995
1471
1310
1574
2114
2642
2853
2642
2143
1589
1290
1414
1893
2449
2795
2725
2336
1772
1374
1387
1743
2304
2749
2800
2475
1916
1427
1302
1584
2128
2639
2831
2613
2096
1535
1261
1403
1902
2454
2765
2663
2245
1691
1325
1363
1743
2301
2711
2755
2431
1871
1422
1344
1648
2176
2675
2867
2655
2134
1562
1282
1449
1921
2503
2843
2751
2317
1737
1360
1389
1749
2288
2678
2689
2342
1771
1283
1193
1509
2066
2559
2736
2512
2007
1483
1231
1427
1920
2474
2739
2598
2151
1579
1264
1325
1713
2285
2707
2736
2391
1826
1367
1274
1561
2115
2625
2802
2589
2118
1651
1511
1797
2405
3106
3600
3575
3115
2516
2116
2090
2359
2737
2928
2736
2234
1557
1033
943
1264
1826
2319
2469
2240
1728
1216
1040
1262
1789
2354
2656
2535
2118
1587
1255
1328
1747
2309
2688
2685
2335
1778
1338
1303
1641
2181
2619
2734
2471
1957
1456
1281
1504
2026
2559
2849
2704
2256
1715
1386
1456
1858
2400
2780
2773
2423
1869
1427
1398
1757
2343
2835
2974
2695
2163
1679
1519
1771
2282
2805
3053
2855
2375
1831
1533
1647
2065
2615
2978
2929
2546
2011
1596
1535
1845
2385
2827
2914
2627
2106
1598
1419
1637
2138
2653
2883
2707
2207
1647
1334
1437
1855
2390
2753
2711
2319
1767
1360
1335
1648
2189
2624
2691
2383
1841
1346
1194
1436
1956
2459
2658
2454
1981
1462
1205
1353
1795
2336
2657
2559
2160
1588
1183
1201
1594
2170
2608
2657
2335
1758
1244
1111
1383
1922
2423
2634
2426
1925
1373
1109
1248
1685
2227
2545
2471
2095
1535
1163
1200
1565
2125
2542
2594
2286
1733
1263
1154
1424
1949
2430
2608
2385
1882
1328
1068
1232
1711
2256
2545
2431
1989
1392
1040
1114
1492
2096
2496
2503
2164
1584
1111
1021
1325
1883
2386
2559
2353
1834
1281
1054
1229
1705
2267
2559
2435
2014
1460
1109
1185
1617
2211
2669
2765
2526
2099
1761
1779
2161
2754
3266
3376
3006
2335
1641
1238
1251
1573
2000
2215
2063
1603
1053
740
838
1251
1793
2199
2238
1919
1360
917
880
1243
1845
2341
2452
2191
1669
1161
969
1236
1786
2325
2592
2448
1984
1408
1058
1143
1563
2138
2534
2538
2178
1617
1202
1186
1527
2071
2507
2598
2311
1788
1295
1127
1353
1856
2394
2663
2512
2064
1530
1255
1370
1797
2363
2738
2720
2356
1818
1413
1378
1703
2256
2739
2835
2559
2032
1525
1353
1586
2098
2608
2824
2631
2174
1601
1280
1374
1788
2314
2661
2631
2269
1735
1329
1296
1613
2145
2559
2641
2353
1814
1307
1135
1357
1863
2391
2624
2446
1965
1399
1104
1232
1686
2235
2559
2494
2117
1535
1134
1105
1460
2019
2475
2559
2263
1703
1207
1048
1310
1850
2372
2583
2383
1889
1334
1050
1165
1616
2177
2525
2474
2097
1535
1142
1116
1449
2015
2450
2515
2220
1677
1217
1110
1367
1883
2396
2611
2416
1936
1410
1134
1246
1673
2222
2549
2471
2082
1531
1168
1199
1558
2096
2481
2510
2192
1635
1149
1023
1296
1840
2369
2556
2352
1865
1323
1072
1249
1719
2244
2544
2445
2018
1443
1056
1081
1458
2031
2457
2496
2181
1650
1198
1084
1355
1890
2366
2511
2277
1789
1298
1121
1360
1919
2556
2955
2960
2643
2207
1954
2076
2460
2975
3303
3168
2640
1910
1276
1011
1149
1584
2026
2189
1966
1456
935
715
912
1430
1999
2320
2235
1823
1278
958
1056
1493
2043
2448
2468
2133
1591
1159
1098
1405
1959
2446
2595
2341
1821
1298
1091
1307
1834
2387
2655
2501
2064
1517
1203
1286
1703
2273
2663
2653
2291
1745
1311
1249
1566
2109
2624
2763
2519
2027
1526
1351
1567
2064
2559
2839
2704
2270
1735
1430
1535
1957
2512
2875
2827
2465
1936
1535
1503
1814
2352
2821
2935
2651
2113
1572
1344
1554
2063
2590
2825
2669
2194
1637
1317
1410
1827
2362
2711
2669
2271
1680
1247
1210
1535
2082
2535
2624
2335
1790
1290
1123
1365
1876
2405
2651
2493
2046
1488
1181
1264
1678
2213
2559
2503
2129
1569
1170
1174
1520
2071
2496
2553
2272
1744
1261
1120
1382
1921
2449
2670
2461
1962
1395
1127
1250
1664
2188
2503
2416
2010
1488
1130
1159
1526
2096
2528
2623
2329
1776
1284
1152
1408
1934
2443
2627
2422
1937
1391
1121
1230
1687
2243
2559
2486
2089
1499
1113
1131
1491
2057
2477
2518
2214
1648
1197
1092
1361
1862
2336
2510
2315
1843
1290
1046
1223
1717
2273
2559
2469
2041
1455
1072
1104
1488
2064
2485
2517
2193
1665
1264
1237
1607
2258
2899
3237
3131
2713
2254
2023
2192
2611
3056
3185
2849
2212
1456
944
886
1193
1712
2117
2160
1849
1295
833
738
1034
1616
2146
2331
2121
1637
1161
960
1170
1677
2223
2504
2368
1941
1392
1060
1147
1577
2156
2551
2559
2238
1677
1215
1122
1403
1978
2465
2625
2394
1890
1370
1153
1352
1867
2432
2722
2588
2111
1535
1211
1306
1731
2300
2694
2703
2384
1868
1456
1391
1695
2238
2737
2890
2657
2143
1633
1426
1614
2107
2662
2944
2803
2343
1767
1424
1491
1890
2447
2832
2827
2452
1886
1454
1392
1686
2201
2673
2802
2535
1987
1463
1252
1452
1937
2478
2749
2596
2142
1569
1215
1299
1728
2266
2614
2544
2186
1643
1201
1137
1472
2056
2537
2646
2347
1778
1239
1071
1331
1863
2400
2652
2479
1995
1421
1083
1173
1600
2176
2532
2485
2117
1527
1125
1096
1441
2012
2478
2595
2321
1777
1279
1130
1360
1873
2390
2633
2477
2021
1470
1146
1215
1639
2209
2581
2535
2170
1601
1214
1233
1600
2160
2577
2624
2318
1790
1303
1158
1379
1884
2396
2624
2449
1984
1419
1136
1275
1728
2287
2593
2527
2159
1602
1200
1183
1519
2085
2531
2611
2301
1728
1226
1125
1424
1957
2451
2640
2442
1967
1414
1138
1298
1762
2329
2640
2528
2106
1565
1221
1303
1769
2423
2972
3178
2987
2544
2155
2091
2377
2879
3278
3282
2846
2165
1471
1055
1087
1475
1987
2279
2204
1808
1268
903
946
1356
1963
2395
2434
2100
1531
1069
974
1274
1847
2401
2626
2426
1921
1382
1152
1347
1829
2368
2663
2555
2154
1599
1238
1302
1710
2256
2653
2688
2371
1825
1388
1323
1630
2177
2662
2803
2556
2065
1555
1328
1509
2000
2555
2863
2753
2326
1771
1431
1510
1927
2509
2922
2938
2608
2083
1663
1596
1881
2391
2870
3066
2826
2263
1713
1487
1674
2173
2736
3023
2850
2371
1805
1447
1501
1890
2427
2823
2832
2480
1925
1483
1392
1663
2187
2670
2807
2541
1999
1461
1221
1408
1908
2451
2719
2559
2097
1525
1225
1339
1771
2333
2702
2670
2293
1723
1287
1227
1533
2086
2579
2735
2464
1919
1400
1216
1411
1888
2417
2654
2490
2047
1488
1169
1270
1679
2235
2610
2592
2225
1677
1232
1189
1520
2094
2582
2703
2423
1891
1362
1181
1416
1931
2463
2711
2545
2095
1530
1214
1314
1757
2326
2688
2639
2256
1712
1280
1216
1509
2037
2480
2578
2310
1781
1303
1137
1377
1895
2423
2653
2477
1985
1434
1107
1221
1664
2236
2605
2555
2160
1573
1149
1134
1479
2065
2529
2625
2335
1802
1323
1168
1395
1906
2417
2640
2492
2060
1559
1337
1565
2112
2767
3216
3257
2925
2401
2023
1974
2211
2588
2837
2710
2241
1552
945
734
960
1497
2015
2259
2132
1682
1143
864
1019
1520
2107
2431
2355
1954
1406
1059
1104
1488
2093
2519
2559
2270
1742
1275
1151
1426
1990
2517
2707
2477
1953
1383
1109
1264
1744
2327
2655
2559
2192
1648
1270
1309
1680
2235
2650
2704
2415
1881
1423
1316
1597
2128
2640
2830
2609
2127
1627
1370
1533
2009
2559
2901
2819
2391
1818
1456
1523
1904
2453
2881
2918
2544
1941
1434
1344
1663
2220
2707
2879
2640
2109
1520
1263
1426
1927
2480
2796
2678
2219
1643
1280
1338
1726
2270
2660
2673
2319
1744
1289
1216
1495
2023
2490
2641
2394
1888
1366
1163
1372
1871
2383
2661
2501
2063
1488
1132
1193
1599
2160
2581
2624
2287
1695
1207
1104
1420
1995
2496
2655
2416
1856
1309
1096
1296
1820
2383
2662
2517
2062
1475
1142
1227
1653
2238
2638
2619
2227
1648
1229
1185
1525
2106
2559
2671
2389
1865
1362
1183
1392
1851
2379
2640
2482
2020
1445
1116
1218
1623
2167
2527
2515
2159
1584
1125
1072
1418
1993
2485
2592
2287
1744
1263
1108
1342
1863
2394
2638
2461
1965
1376
1073
1185
1626
2219
2624
2589
2185
1602
1168
1131
1460
2039
2531
2655
2395
1919
1520
1463
1833
2469
3119
3443
3284
2775
2159
1733
1685
1955
2365
2559
2378
1895
1270
848
837
1189
1777
2267
2368
2081
1531
1023
870
1136
1683
2207
2448
2282
1814
1280
1011
1190
1670
2249
2581
2492
2107
1563
1173
1173
1553
2128
2583
2624
2292
1698
1207
1090
1358
1903
2458
2687
2471
1967
1422
1139
1275
1755
2350
2693
2594
2173
1599
1233
1278
1680
2274
2736
2800
2495
1919
1395
1250
1522
2059
2589
2815
2634
2159
1627
1366
1505
1959
2493
2799
2689
2270
1695
1294
1319
1719
2297
2711
2757
2427
1828
1311
1189
1494
2047
2549
2742
2535
2009
1427
1150
1325
1818
2320
2605
2489
2046
1451
1088
1131
1527
2125
2589
2650
2307
1712
1206
1103
1422
1997
2515
2679
2439
1925
1380
1136
1282
1745
2294
2631
2536
2122
1564
1199
1215
1579
2156
2559
2599
2243
1678
1200
1094
1395
1968
2483
2667
2413
1886
1388
1186
1361
1841
2381
2656
2532
2110
1527
1159
1200
1591
2164
2595
2614
2273
1722
1255
1168
1472
2036
2525
2672
2411
1851
1279
1040
1250
1771
2333
2599
2448
2022
1467
1115
1167
1575
2143
2539
2543
2203
1619
1155
1096
1427
2041
2547
2688
2433
1897
1334
1092
1271
1770
2323
2617
2480
2022
1454
1133
1264
1744
2383
2849
2928
2640
2151
1783
1823
2222
2819
3301
3358
2969
2306
1631
1277
1367
1773
2222
2430
2249
1769
1216
911
1005
1413
1978
2357
2366
2031
1488
1076
1039
1386
1997
2496
2626
2352
1806
1266
1072
1317
1847
2389
2624
2454
2015
1487
1187
1291
1734
2295
2656
2625
2255
1687
1263
1232
1584
2149
2602
2701
2443
1889
1365
1203
1482
2032
2559
2807
2635
2158
1569
1271
1405
1861
2439
2819
2784
2407
1872
1484
1485
1825
2357
2799
2858
2530
1985
1495
1346
1595
2125
2660
2891
2714
2223
1650
1331
1453
1915
2480
2815
2734
2320
1778
1377
1403
1779
2340
2787
2838
2511
1955
1469
1319
1556
2070
2583
2781
2553
2038
1487
1239
1406
1869
2430
2743
2661
2255
1692
1296
1314
1679
2245
2678
2729
2400
1851
1377
1264
1535
2096
2621
2846
2647
2145
1581
1293
1434
1903
2448
2769
2678
2273
1729
1351
1385
1759
2317
2725
2734
2366
1787
1323
1244
1571
2166
2701
2911
2670
2145
1571
1280
1454
1953
2521
2843
2736
2317
1776
1409
1453
1840
2381
2767
2758
2391
1815
1398
1340
1614
2131
2594
2739
2501
2006
1483
1250
1447
1953
2512
2819
2699
2240
1648
1267
1346
1777
2352
2759
2786
2441
1869
1389
1303
1607
2147
2630
2789
2559
2078
1554
1347
1591
2145
2768
3176
3184
2855
2379
2114
2239
2655
3185
3519
3364
2799
2069
1459
1257
1493
2000
2463
2610
2369
1862
1318
1102
1313
1811
2368
2659
2519
2080
1519
1215
1338
1776
2355
2749
2734
2367
1808
1363
1325
1678
2238
2713
2847
2578
2035
1522
1335
1567
2090
2656
2937
2772
2306
1731
1392
1487
1923
2527
2943
2917
2512
1930
1472
1424
1764
2327
2842
2991
2723
2211
1714
1515
1728
2237
2777
3043
2883
2435
1910
1612
1712
2137
2714
3105
3071
2686
2112
1680
1654
1983
2523
2974
3059
2741
2210
1718
1535
1787
2283
2805
3051
2853
2368
1808
1504
1623
2062
2593
2928
2854
2453
1891
1488
1486
1832
2385
2838
2917
2593
2062
1562
1409
1659
2173
2681
2899
2722
2226
1664
1387
1535
2017
2590
2928
2834
2403
1856
1465
1454
1793
2348
2798
2887
2580
2005
1488
1351
1626
2144
2663
2874
2697
2226
1679
1377
1499
1961
2524
2863
2773
2366
1815
1425
1431
1795
2368
2819
2896
2559
2023
1509
1386
1663
2192
2719
2898
2704
2205
1672
1420
1574
2036
2559
2875
2761
2317
1731
1357
1398
1790
2351
2778
2826
2499
1939
1456
1328
1587
2118
2639
2823
2593
2096
1535
1302
1470
1935
2499
2816
2703
2272
1708
1348
1383
1767
2337
2758
2782
2432
1875
1429
1386
1743
2369
2960
3248
3137
2705
2255
2091
2304
2773
3294
3507
3200
2583
1857
1359
1280
1572
2064
2438
2459
2139
1589
1136
1046
1363
1942
2445
2613
2394
1898
1381
1173
1389
1887
2445
2717
2559
2129
1572
1247
1360
1804
2389
2789
2799
2442
1877
1415
1322
1619
2189
2690
2845
2583
2061
1526
1298
1510
2003
2545
2855
2747
2304
1757
1456
1563
1968
2527
2921
2926
2589
2037
1610
1563
1903
2470
2944
3056
2784
2238
1709
1508
1745
2267
2807
3071
2935
2477
1922
1578
1657
2064
2603
2946
2906
2537
1997
1579
1535
1859
2374
2819
2916
2607
2064
1572
1410
1650
2134
2641
2892
2705
2237
1683
1360
1454
1872
2400
2742
2693
2301
1753
1343
1334
1680
2224
2656
2741
2450
1915
1402
1206
1415
1936
2475
2761
2612
2160
1602
1282
1373
1765
2293
2639
2587
2198
1650
1246
1243
1607
2144
2559
2652
2365
1841
1354
1190
1427
1950
2448
2671
2475
2003
1461
1202
1354
1792
2328
2669
2583
2176
1616
1216
1206
1574
2137
2559
2641
2350
1806
1326
1171
1410
1930
2432
2637
2427
1947
1408
1127
1271
1728
2289
2618
2505
2082
1499
1122
1148
1525
2106
2549
2619
2313
1745
1237
1103
1348
1862
2356
2559
2354
1865
1342
1075
1233
1702
2234
2529
2448
2078
1525
1143
1191
1603
2214
2703
2831
2621
2177
1821
1819
2171
2753
3312
3472
3107
2427
1727
1307
1301
1590
2029
2275
2128
1675
1119
766
825
1216
1794
2211
2245
1933
1408
976
903
1219
1771
2266
2427
2195
1709
1179
947
1149
1667
2240
2545
2443
2014
1459
1104
1134
1508
2077
2506
2538
2193
1621
1149
1076
1379
1920
2417
2583
2349
1845
1327
1104
1281
1774
2321
2641
2529
2096
1535
1214
1282
1680
2231
2613
2637
2304
1760
1330
1280
1629
2189
2671
2800
2551
2023
1494
1289
1479
1954
2481
2752
2626
2199
1646
1280
1321
1712
2261
2643
2639
2274
1685
1230
1162
1456
2001
2512
2661
2359
1789
1236
1011
1216
1717
2256
2519
2384
1936
1393
1081
1158
1567
2122
2505
2485
2116
1525
1091
1041
1343
1879
2311
2416
2160
1654
1147
945
1171
1692
2214
2447
2281
1835
1297
975
1079
1520
2095
2439
2416
2059
1473
1054
1008
1335
1870
2306
2400
2128
1611
1136
977
1216
1715
2224
2433
2251
1783
1259
985
1097
1535
2102
2448
2399
2016
1456
1040
1006
1374
1959
2416
2482
2194
1664
1134
935
1154
1663
2171
2395
2220
1734
1183
879
988
1430
2003
2361
2327
1955
1395
976
951
1302
1840
2271
2353
2054
1505
1023
882
1142
1674
2211
2432
2230
1739
1183
894
1039
1514
2114
2512
2527
2207
1751
1482
1616
2099
2779
3338
3440
3046
2379
1742
1424
1507
1846
2159
2171
1853
1297
766
531
703
1178
1760
2112
2064
1649
1114
779
835
1218
1747
2179
2246
1941
1427
987
906
1198
1744
2253
2442
2230
1728
1163
896
1079
1561
2115
2435
2354
1935
1349
965
1007
1414
1984
2399
2421
2096
1555
1105
991
1287
1827
2322
2512
2303
1822
1312
1088
1290
1793
2364
2688
2559
2135
1583
1227
1282
1681
2243
2670
2697
2373
1830
1354
1232
1521
2087
2597
2779
2544
2037
1498
1247
1415
1870
2411
2699
2559
2128
1562
1198
1242
1623
2164
2555
2558
2212
1668
1212
1101
1366
1886
2367
2551
2326
1849
1302
1067
1247
1727
2252
2502
2361
1926
1361
1058
1152
1579
2160
2559
2559
2211
1618
1138
1031
1308
1837
2303
2454
2243
1747
1249
1040
1203
1677
2211
2489
2366
1938
1421
1108
1205
1593
2137
2507
2480
2096
1517
1086
1051
1399
1975
2461
2592
2314
1820
1314
1147
1378
1894
2432
2675
2475
2010
1505
1198
1315
1712
2234
2586
2529
2133
1581
1173
1136
1447
1986
2448
2582
2331
1840
1352
1164
1383
1875
2385
2610
2448
1991
1424
1125
1251
1685
2211
2558
2521
2181
1656
1232
1217
1574
2127
2559
2656
2389
1865
1346
1169
1402
1915
2430
2671
2514
2112
1638
1427
1687
2224
2861
3371
3493
3183
2598
2103
1981
2188
2544
2791
2663
2224
1586
1039
859
1098
1602
2133
2359
2194
1727
1210
959
1106
1579
2158
2519
2473
2096
1533
1145
1153
1561
2151
2598
2657
2365
1840
1363
1228
1493
2023
2539
2750
2551
2070
1521
1266
1419
1867
2422
2769
2688
2301
1764
1375
1378
1744
2309
2751
2823
2499
1961
1485
1365
1658
2198
2735
2965
2771
2284
1744
1489
1650
2125
2688
3020
2944
2557
2029
1660
1658
1983
2528
2960
3013
2688
2118
1649
1535
1837
2357
2864
3031
2769
2239
1696
1441
1607
2061
2599
2879
2758
2340
1787
1395
1417
1801
2367
2793
2832
2482
1909
1431
1318
1583
2095
2594
2766
2506
2001
1482
1283
1502
1990
2495
2753
2622
2186
1611
1232
1283
1684
2252
2674
2687
2310
1771
1331
1254
1535
2091
2559
2729
2495
1969
1427
1194
1387
1874
2415
2689
2557
2133
1583
1232
1297
1699
2250
2631
2677
2351
1798
1329
1231
1535
2110
2611
2752
2476
1941
1392
1168
1392
1921
2496
2795
2661
2195
1591
1204
1261
1664
2226
2630
2626
2250
1669
1214
1134
1418
1970
2475
2635
2384
1874
1345
1134
1341
1841
2384
2670
2513
2041
1469
1132
1223
1665
2225
2607
2583
2212
1646
1197
1149
1491
2083
2608
2785
2559
2084
1625
1514
1855
2496
3184
3610
3439
2877
2205
1734
1665
1927
2303
2501
2321
1855
1239
803
774
1142
1735
2214
2321
2064
1535
1062
896
1153
1689
2235
2489
2346
1891
1338
1043
1162
1620
2221
2603
2559
2190
1622
1198
1168
1524
2112
2558
2625
2294
1743
1271
1137
1393
1917
2445
2683
2515
2081
1562
1281
1392
1831
2397
2763
2708
2304
1724
1295
1297
1679
2258
2718
2815
2531
2015
1527
1365
1616
2161
2704
2934
2732
2211
1637
1351
1513
1984
2544
2899
2837
2448
1860
1424
1402
1757
2316
2752
2827
2517
1946
1425
1279
1535
2083
2593
2803
2608
2096
1514
1217
1353
1833
2407
2717
2602
2171
1581
1158
1142
1514
2114
2559
2632
2309
1744
1260
1130
1388
1931
2485
2704
2480
1960
1386
1113
1273
1780
2359
2704
2605
2161
1589
1165
1156
1555
2148
2593
2624
2272
1695
1203
1097
1392
1923
2418
2608
2373
1867
1323
1072
1251
1748
2310
2639
2544
2126
1535
1174
1207
1594
2167
2592
2622
2277
1719
1259
1181
1466
1979
2480
2687
2447
1911
1313
1031
1206
1707
2283
2614
2515
2063
1472
1076
1077
1469
2054
2473
2508
2171
1627
1150
1053
1330
1877
2401
2587
2350
1831
1278
1057
1241
1744
2320
2613
2487
2033
1453
1098
1159
1553
2128
2551
2596
2294
1831
1509
1561
1990
2686
3313
3575
3295
2673
2030
1646
1677
2025
2427
2559
2320
1769
1118
755
864
1317
1886
2257
2246
1866
1269
848
859
1253
1859
2385
2537
2258
1709
1199
1023
1270
1775
2305
2559
2416
1935
1359
1033
1136
1587
2191
2629
2647
2290
1718
1232
1136
1453
2019
2514
2643
2389
1854
1347
1169
1405
1887
2427
2678
2531
2091
1509
1198
1317
1793
2394
2786
2755
2367
1790
1383
1373
1732
2290
2761
2866
2558
2025
1517
1337
1591
2127
2655
2896
2704
2193
1584
1248
1377
1853
2443
2822
2775
2368
1763
1280
1232
1582
2173
2669
2783
2480
1903
1335
1109
1328
1847
2389
2626
2445
1963
1392
1094
1219
1687
2286
2653
2559
2153
1558
1147
1143
1509
2086
2547
2640
2317
1718
1192
1030
1294
1861
2402
2623
2433
1955
1386
1083
1216
1663
2220
2547
2470
2047
1463
1056
1071
1479
2083
2535
2608
2291
1723
1235
1104
1380
1919
2449
2651
2423
1935
1392
1104
1246
1733
2320
2640
2548
2125
1524
1154
1195
1582
2166
2621
2682
2322
1719
1191
1002
1272
1856
2411
2624
2417
1919
1349
1088
1261
1723
2288
2629
2524
2075
1462
1056
1078
1465
2065
2526
2595
2241
1681
1214
1095
1388
1945
2478
2631
2352
1808
1262
1002
1200
1712
2305
2661
2605
2224
1722
1440
1612
2155
2854
3426
3568
3216
2599
2028
1759
1875
2233
2594
2662
2329
1738
1135
843
1003
1490
2038
2333
2206
1735
1139
795
882
1357
2000
2483
2538
2190
1597
1108
1008
1327
1897
2416
2607
2378
1844
1280
1020
1216
1749
2351
2686
2537
2045
1419
1034
1101
1535
2177
2624
2642
2283
1686
1181
1098
1431
2039
2589
2761
2511
1962
1401
1178
1394
1920
2480
2783
2645
2186
1626
1301
1387
1805
2387
2818
2822
2447
1857
1399
1343
1661
2203
2704
2843
2545
1990
1449
1233
1449
1983
2551
2830
2666
2179
1599
1239
1314
1747
2365
2766
2751
2367
1759
1239
1133
1457
2032
2529
2667
2382
1819
1277
1074
1296
1819
2370
2654
2509
2031
1432
1078
1146
1591
2181
2553
2544
2165
1579
1152
1129
1483
2079
2543
2645
2332
1748
1219
1066
1306
1839
2407
2672
2483
2014
1447
1139
1250
1696
2272
2640
2559
2149
1535
1103
1104
1471
2064
2537
2624
2295
1726
1221
1069
1312
1855
2446
2714
2533
2043
1467
1136
1247
1702
2271
2612
2532
2127
1535
1131
1136
1535
2135
2559
2631
2298
1735
1238
1084
1343
1898
2439
2640
2416
1893
1285
971
1123
1625
2201
2551
2497
2096
1495
1083
1072
1423
2013
2490
2591
2259
1670
1136
976
1262
1837
2412
2667
2464
1927
1302
1011
1218
1792
2457
2897
2908
2597
2147
1855
1963
2384
2974
3421
3398
2950
2240
1535
1238
1377
1826
2258
2391
2144
1587
1053
790
950
1457
2064
2402
2326
1886
1302
945
1015
1437
2062
2534
2595
2237
1659
1168
1061
1349
1898
2438
2651
2416
1872
1297
1046
1232
1744
2338
2694
2594
2158
1570
1186
1249
1675
2260
2711
2736
2378
1789
1297
1215
1535
2076
2579
2739
2514
2000
1465
1236
1465
2015
2663
3041
2919
2439
1840
1430
1466
1857
2433
2863
2893
2540
1969
1501
1403
1701
2262
2800
2972
2702
2145
1562
1302
1519
2045
2599
2841
2679
2209
1618
1252
1329
1780
2411
2851
2867
2497
1878
1355
1234
1535
2110
2629
2804
2538
1978
1422
1207
1425
1942
2512
2814
2673
2176
1535
1146
1198
1644
2251
2688
2702
2311
1708
1232
1168
1522
2147
2693
2831
2528
1943
1361
1137
1388
1926
2496
2781
2609
2126
1520
1147
1232
1717
2342
2765
2757
2364
1758
1257
1152
1469
2064
2618
2775
2482
1898
1325
1125
1379
1949
2544
2853
2685
2191
1599
1246
1347
1825
2461
2880
2837
2384
1728
1234
1182
1556
2141
2621
2711
2413
1857
1328
1136
1367
1914
2479
2733
2518
1989
1381
1067
1199
1719
2352
2723
2641
2207
1597
1126
1107
1495
2130
2655
2789
2468
1889
1325
1104
1339
1906
2484
2736
2526
2011
1443
1184
1411
1989
2687
3197
3238
2894
2390
2059
2089
2434
2971
3378
3295
2729
1936
1238
943
1137
1664
2195
2431
2223
1678
1095
820
997
1509
2128
2496
2421
1983
1399
1006
1037
1472
2082
2559
2629
2275
1659
1143
1023
1344
1931
2467
2683
2446
1909
1329
1034
1199
1722
2335
2688
2605
2151
1521
1101
1143
1581
2224
2717
2785
2418
1803
1287
1166
1474
2061
2624
2832
2615
2091
1521
1258
1433
1937
2521
2864
2769
2335
1731
1339
1383
1821
2443
2914
2960
2579
1963
1439
1319
1606
2167
2704
2895
2656
2103
1497
1234
1427
1938
2511
2828
2711
2242
1615
1197
1244
1679
2285
2718
2731
2333
1713
1211
1124
1454
2043
2559
2727
2437
1854
1277
1034
1234
1762
2352
2679
2549
2046
1431
1060
1146
1605
2207
2637
2636
2251
1613
1104
1017
1370
1994
2543
2688
2399
1840
1280
1051
1271
1801
2378
2687
2546
2085
1457
1067
1151
1615
2240
2684
2691
2294
1651
1147
1071
1424
2037
2559
2709
2426
1873
1325
1110
1351
1889
2478
2782
2625
2145
1522
1149
1238
1703
2324
2745
2725
2317
1702
1202
1143
1499
2117
2628
2742
2435
1842
1259
1034
1270
1840
2411
2671
2491
1990
1387
1041
1159
1651
2281
2689
2642
2221
1598
1147
1139
1535
2171
2678
2747
2390
1794
1226
1035
1286
1841
2416
2695
2543
2083
1526
1254
1451
2005
2709
3237
3311
2960
2426
2039
2030
2374
2917
3308
3230
2700
1919
1200
880
1063
1571
2126
2371
2197
1696
1131
833
981
1489
2125
2497
2453
2057
1471
1054
1067
1451
2047
2522
2609
2301
1744
1249
1103
1405
1981
2529
2736
2497
1962
1349
1051
1220
1743
2377
2789
2730
2263
1631
1191
1199
1625
2267
2754
2834
2491
1904
1373
1227
1535
2157
2736
2960
2730
2181
1598
1313
1501
2039
2661
3022
2928
2469
1837
1405
1454
1882
2491
2960
2991
2608
1975
1445
1328
1662
2267
2843
3070
2814
2240
1636
1349
1525
2027
2605
2928
2800
2330
1697
1274
1317
1745
2385
2855
2885
2495
1879
1348
1201
1497
2093
2640
2820
2549
1994
1410
1136
1321
1851
2473
2815
2679
2182
1529
1101
1135
1552
2209
2690
2722
2354
1758
1255
1141
1459
2047
2589
2749
2463
1905
1335
1097
1306
1847
2420
2727
2581
2098
1478
1095
1153
1605
2231
2678
2683
2301
1680
1184
1085
1407
2003
2519
2672
2393
1831
1294
1103
1344
1882
2479
2798
2643
2128
1490
1104
1200
1687
2315
2757
2754
2333
1694
1180
1086
1423
2015
2535
2672
2347
1755
1199
985
1211
1759
2340
2620
2414
1872
1276
934
1042
1535
2215
2660
2620
2167
1509
1023
963
1333
1958
2483
2624
2326
1728
1190
1008
1266
1826
2384
2640
2462
1982
1427
1168
1387
1998
2759
3344
3454
3111
2539
2069
1939
2167
2589
2896
2801
2304
1564
895
642
880
1456
2047
2310
2126
1600
991
673
823
1340
1979
2396
2371
1978
1390
955
959
1359
1962
2443
2543
2256
1697
1171
1007
1266
1810
2370
2627
2425
1910
1314
1001
1167
1682
2304
2706
2653
2207
1584
1133
1155
1577
2205
2675
2743
2383
1775
1242
1125
1445
2069
2673
2919
2691
2151
1535
1247
1435
1953
2555
2928
2847
2406
1778
1342
1381
1794
2407
2880
2945
2588
1991
1455
1311
1591
2197
2765
2955
2698
2141
1526
1239
1422
1943
2541
2870
2748
2263
1664
1263
1300
1684
2247
2677
2695
2321
1718
1225
1142
1450
2009
2530
2714
2449
1889
1282
1007
1210
1747
2355
2714
2608
2128
1497
1092
1124
1533
2149
2597
2625
2274
1657
1136
1011
1319
1906
2459
2672
2443
1876
1264
973
1154
1695
2277
2609
2490
2015
1395
1035
1111
1527
2128
2544
2557
2190
1597
1133
1071
1392
2013
2559
2735
2455
1881
1315
1083
1284
1803
2385
2703
2558
2065
1441
1072
1147
1591
2203
2637
2608
2203
1584
1079
1002
1356
1939
2446
2578
2287
1701
1130
902
1153
1725
2338
2640
2458
1950
1357
1008
1100
1562
2176
2603
2581
2191
1581
1104
1030
1363
1953
2464
2615
2338
1754
1187
983
1258
1839
2448
2797
2735
2341
1853
1613
1812
2357
3081
3583
3486
2921
2145
1494
1264
1438
1872
2230
2252
1937
1366
834
654
891
1441
2018
2338
2191
1697
1114
799
942
1449
2079
2477
2432
2037
1434
984
962
1355
1979
2484
2593
2291
1705
1153
992
1275
1831
2409
2679
2511
2005
1402
1074
1186
1648
2250
2642
2612
2211
1621
1191
1187
1584
2197
2694
2776
2444
1861
1335
1198
1469
2018
2592
2852
2665
2143
1579
1298
1461
1965
2559
2941
2836
2379
1785
1388
1415
1837
2449
2929
2970
2605
1984
1463
1322
1567
2093
2624
2862
2647
2122
1521
1213
1360
1855
2432
2765
2666
2210
1590
1162
1187
1622
2237
2695
2733
2379
1773
1229
1098
1373
1936
2475
2679
2435
1894
1331
1072
1232
1733
2317
2656
2541
2078
1472
1067
1079
1491
2118
2559
2594
2229
1648
1168
1063
1370
1965
2487
2667
2395
1823
1232
976
1177
1712
2311
2647
2523
2042
1442
1054
1121
1566
2192
2631
2625
2256
1657
1152
1057
1376
1958
2493
2670
2419
1886
1346
1130
1346
1893
2476
2768
2601
2094
1470
1082
1141
1575
2143
2544
2553
2185
1572
1111
1054
1392
1985
2494
2630
2337
1772
1226
1010
1239
1783
2355
2651
2499
2018
1434
1077
1135
1567
2170
2608
2612
2237
1629
1147
1079
1422
2027
2555
2737
2512
2045
1613
1522
1869
2497
3198
3660
3554
3037
2373
1899
1833
2090
2480
2668
2448
1946
1279
795
752
1104
1693
2190
2327
2066
1519
983
813
1093
1682
2290
2598
2415
1917
1339
1018
1162
1643
2252
2643
2595
2192
1606
1183
1168
1535
2135
2631
2732
2398
1822
1297
1156
1439
1981
2523
2768
2581
2078
1500
1215
1365
1861
2441
2791
2723
2323
1759
1365
1370
1754
2359
2858
2949
2639
2064
1519
1347
1633
2206
2775
3033
2855
2357
1789
1485
1637
2112
2678
3021
2927
2491
1907
1485
1487
1859
2447
2909
2986
2658
2089
1557
1385
1642
2165
2691
2896
2678
2173
1598
1296
1418
1902
2480
2811
2699
2238
1623
1207
1229
1629
2217
2673
2738
2402
1835
1335
1197
1455
2004
2547
2767
2533
2023
1451
1170
1331
1808
2359
2677
2592
2174
1589
1168
1175
1575
2186
2672
2737
2368
1744
1220
1087
1383
1963
2498
2698
2450
1923
1365
1105
1321
1858
2462
2786
2642
2167
1525
1136
1175
1614
2244
2699
2754
2395
1803
1282
1181
1513
2087
2593
2749
2469
1903
1315
1049
1245
1778
2381
2711
2577
2082
1442
1056
1126
1582
2204
2650
2661
2260
1663
1183
1082
1378
1957
2470
2635
2399
1856
1286
1044
1270
1807
2382
2658
2509
2039
1454
1088
1151
1599
2260
2772
2857
2555
2063
1683
1728
2175
2880
3542
3773
3344
2643
1921
1508
1534
1871
2256
2393
2151
1618
1013
670
775
1223
1867
2301
2301
1920
1325
893
896
1317
1962
2467
2595
2309
1757
1221
1038
1278
1793
2341
2623
2451
1949
1353
1023
1154
1649
2256
2642
2635
2258
1673
1231
1194
1535
2131
2624
2727
2437
1884
1360
1168
1424
1984
2550
2827
2679
2192
1616
1290
1407
1887
2508
2922
2891
2482
1893
1456
1443
1815
2416
2911
3015
2705
2115
1569
1387
1637
2190
2775
3031
2838
2329
1727
1373
1478
1966
2559
2947
2864
2429
1829
1381
1330
1681
2283
2762
2839
2501
1909
1379
1227
1493
2074
2626
2847
2628
2095
1491
1168
1317
1808
2388
2731
2637
2191
1584
1173
1211
1622
2234
2686
2703
2337
1746
1227
1082
1379
1968
2551
2799
2553
1991
1374
1072
1226
1745
2377
2752
2654
2193
1584
1172
1201
1623
2239
2704
2749
2390
1793
1277
1152
1469
2082
2647
2860
2608
2062
1435
1137
1323
1872
2498
2832
2711
2246
1648
1241
1287
1714
2320
2762
2766
2369
1752
1248
1140
1456
2034
2549
2718
2438
1872
1301
1060
1264
1833
2446
2779
2661
2201
1573
1162
1216
1659
2282
2723
2731
2320
1687
1200
1136
1471
2064
2583
2768
2533
2005
1483
1302
1614
2227
2930
3399
3362
2926
2370
2003
2015
2359
2842
3135
2956
2371
1587
924
748
1039
1665
2255
2447
2177
1605
1051
842
1051
1602
2228
2582
2450
1971
1391
1049
1158
1648
2284
2708
2694
2311
1701
1231
1168
1507
2123
2641
2779
2490
1917
1358
1155
1399
1946
2541
2862
2715
2211
1595
1221
1306
1777
2414
2859
2848
2430
1808
1328
1290
1675
2320
2866
3013
2720
2142
1577
1366
1634
2207
2799
3058
2869
2367
1766
1415
1535
2045
2678
3111
3056
2599
1953
1490
1457
1795
2349
2825
2910
2559
1979
1454
1300
1600
2180
2750
2967
2739
2195
1556
1188
1326
1818
2459
2827
2736
2265
1617
1145
1121
1514
2122
2624
2704
2347
1719
1171
1008
1296
1870
2421
2646
2416
1869
1277
967
1129
1613
2241
2625
2525
2064
1407
939
928
1353
2015
2553
2624
2256
1648
1105
944
1230
1824
2404
2638
2405
1837
1226
928
1108
1641
2262
2627
2542
2075
1426
996
1037
1439
2047
2544
2640
2274
1631
1088
960
1287
1907
2478
2682
2405
1817
1197
878
1043
1568
2181
2521
2407
1933
1310
896
944
1397
2037
2508
2557
2201
1574
1046
923
1227
1813
2362
2556
2309
1776
1226
975
1141
1633
2226
2551
2418
1951
1354
1034
1166
1663
2367
2926
3084
2798
2288
1882
1838
2147
2685
3139
3167
2719
1974
1203
797
897
1370
1937
2258
2166
1713
1109
734
803
1246
1875
2335
2354
1968
1347
874
832
1209
1857
2431
2621
2352
1791
1191
944
1179
1744
2331
2630
2495
1995
1357
960
1056
1535
2182
2619
2610
2211
1598
1136
1102
1481
2103
2631
2773
2465
1879
1327
1093
1317
1872
2479
2779
2618
2132
1555
1232
1354
1808
2432
2874
2849
2430
1813
1338
1296
1677
2288
2803
2938
2637
2054
1488
1305
1535
2095
2649
2880
2682
2175
1591
1259
1355
1807
2383
2768
2728
2313
1713
1248
1210
1571
2165
2640
2727
2411
1813
1251
1072
1328
1897
2453
2690
2483
1965
1360
1045
1200
1691
2283
2655
2602
2163
1558
1139
1137
1501
2098
2604
2683
2330
1727
1207
1071
1342
1893
2439
2663
2453
1939
1351
1053
1211
1697
2305
2679
2614
2198
1587
1171
1186
1565
2143
2596
2688
2377
1785
1235
1096
1377
1939
2497
2730
2501
1948
1345
1055
1228
1756
2366
2706
2593
2122
1489
1067
1102
1522
2145
2611
2674
2323
1680
1115
976
1314
1915
2473
2690
2469
1927
1342
1079
1245
1747
2332
2672
2545
2065
1422
1015
1089
1535
2161
2603
2629
2245
1639
1152
1099
1492
2208
2868
3200
3071
2635
2151
1959
2206
2725
3282
3522
3183
2483
1674
1114
1057
1411
1971
2373
2384
2015
1398
894
807
1150
1759
2313
2502
2244
1696
1146
946
1195
1738
2335
2661
2534
2086
1499
1117
1185
1634
2257
2711
2737
2364
1772
1277
1200
1520
2121
2655
2770
2480
1918
1360
1162
1418
1978
2559
2864
2704
2190
1594
1264
1389
1856
2461
2877
2861
2473
1890
1456
1402
1762
2369
2891
3041
2761
2207
1666
1455
1695
2241
2802
3062
2881
2369
1744
1393
1535
2031
2645
3057
3037
2594
1935
1438
1378
1745
2375
2895
3031
2705
2119
1570
1382
1631
2160
2693
2929
2722
2193
1597
1248
1361
1851
2455
2863
2803
2380
1787
1325
1283
1647
2231
2720
2830
2512
1938
1408
1232
1497
2095
2681
2933
2724
2187
1589
1262
1395
1878
2477
2845
2752
2288
1651
1200
1219
1657
2304
2827
2928
2589
1974
1426
1266
1566
2148
2731
2972
2735
2187
1606
1286
1429
1930
2534
2910
2855
2423
1810
1366
1379
1781
2368
2830
2879
2505
1890
1345
1190
1465
2015
2553
2802
2615
2092
1508
1237
1407
1926
2539
2891
2769
2293
1676
1249
1262
1671
2288
2751
2803
2470
1885
1360
1219
1519
2105
2640
2839
2597
2027
1457
1223
1452
2021
2675
3120
3118
2754
2269
1979
2118
2603
3250
3821
3793
3183
2380
1671
1369
1535
2018
2496
2627
2322
1741
1155
887
1091
1643
2242
2559
2447
1975
1361
991
1104
1584
2221
2678
2715
2366
1789
1293
1189
1520
2112
2640
2774
2503
1938
1392
1196
1438
1989
2578
2880
2742
2259
1654
1290
1374
1827
2429
2832
2815
2431
1858
1354
1269
1613
2223
2777
2949
2682
2128
1578
1328
1559
2112
2709
3018
2855
2354
1762
1402
1493
1969
2606
3055
3056
2619
1987
1519
1472
1808
2400
2926
3057
2753
2160
1584
1371
1611
2153
2715
2979
2797
2287
1674
1323
1441
1916
2502
2881
2827
2384
1745
1250
1203
1587
2187
2689
2819
2511
1923
1370
1189
1470
2059
2621
2849
2624
2095
1492
1171
1299
1779
2402
2775
2703
2262
1646
1183
1163
1570
2192
2711
2815
2471
1861
1302
1130
1407
1968
2544
2788
2551
2032
1450
1150
1286
1774
2378
2779
2725
2291
1703
1265
1231
1605
2214
2723
2800
2446
1843
1283
1114
1422
2016
2602
2841
2594
2055
1424
1104
1260
1769
2369
2724
2637
2200
1585
1149
1127
1518
2149
2623
2672
2315
1728
1213
1079
1367
1953
2498
2707
2467
1919
1345
1058
1242
1761
2363
2704
2606
2156
1515
1094
1136
1568
2196
2672
2731
2401
1886
1471
1462
1904
2624
3314
3692
3461
2862
2233
1878
1931
2298
2726
2901
2653
2064
1332
854
880
1314
1917
2346
2354
1986
1382
877
802
1167
1817
2393
2597
2343
1788
1207
954
1179
1738
2345
2672
2523
2038
1438
1048
1098
1535
2189
2645
2672
2288
1680
1184
1091
1424
2013
2526
2683
2425
1889
1342
1121
1357
1924
2501
2832
2683
2166
1522
1154
1263
1731
2353
2787
2795
2420
1840
1391
1354
1711
2307
2818
2944
2646
2070
1514
1313
1559
2108
2662
2931
2758
2255
1650
1293
1394
1869
2490
2903
2850
2418
1808
1343
1291
1638
2239
2731
2839
2518
1924
1355
1165
1403
1939
2523
2791
2592
2047
1417
1104
1217
1711
2331
2730
2672
2229
1616
1168
1149
1514
2115
2607
2690
2361
1770
