883
1051
1605
2275
2692
2624
2150
1462
971
958
1392
2086
2625
2705
2339
1676
1093
935
1245
1883
2493
2739
2510
1925
1271
941
1108
1680
2346
2736
2640
2133
1441
963
982
1438
2130
2661
2731
2343
1681
1104
949
1264
1914
2538
2779
2528
1917
1255
926
1113
1701
2368
2752
2640
2128
1447
1006
1034
1484
2167
2672
2715
2318
1649
1083
950
1287
1946
2559
2800
2531
1914
1260
944
1138
1726
2385
2758
2635
2103
1418
960
1010
1503
2202
2719
2768
2354
1680
1110
994
1346
1990
2579
2784
2512
1898
1254
969
1177
1774
2431
2799
2665
2133
1454
1010
1077
1566
2254
2752
2778
2361
1682
1115
986
1344
2017
2635
2838
2557
1926
1286
999
1223
1838
2511
2854
2694
2142
1431
1007
1082
1578
2274
2771
2794
2368
1693
1142
1054
1422
2097
2689
2864
2553
1919
1271
1011
1264
1874
2527
2870
2713
2170
1491
1078
1152
1643
2318
2798
2801
2384
1714
1184
1120
1499
2175
2767
2928
2615
1967
1329
1088
1335
1957
2610
2933
2745
2166
1475
1075
1168
1689
2368
2832
2822
2368
1683
1132
1050
1442
2115
2694
2833
2494
1833
1206
976
1247
1872
2538
2853
2670
2099
1421
1023
1141
1678
2365
2821
2795
2331
1662
1172
1173
1658
2433
3143
3440
3201
2619
2083
1919
2207
2816
3426
3632
3199
2397
1501
947
945
1417
2082
2518
2482
2026
1333
824
789
1232
1947
2538
2692
2359
1709
1104
915
1219
1870
2517
2815
2596
1994
1302
931
1087
1659
2359
2805
2746
2251
1553
1059
1042
1472
2159
2711
2819
2447
1776
1167
973
1274
1918
2559
2847
2623
2013
1338
992
1169
1749
2448
2881
2811
2304
1588
1085
1077
1526
2228
2779
2882
2511
1840
1239
1074
1396
2067
2703
2960
2715
2112
1442
1107
1285
1866
2558
2987
2896
2369
1662
1185
1209
1696
2416
2966
3038
2626
1936
1317
1170
1505
2177
2807
3054
2771
2135
1457
1127
1305
1882
2559
2979
2853
2303
1572
1078
1101
1569
2264
2799
2845
2431
1731
1134
976
1324
1990
2617
2832
2531
1887
1216
915
1131
1731
2399
2769
2649
2119
1414
944
987
1469
2174
2697
2751
2339
1643
1072
950
1314
1977
2559
2779
2492
1843
1185
894
1123
1735
2411
2779
2655
2113
1412
966
1031
1519
2219
2714
2736
2315
1643
1088
978
1361
2067
2678
2863
2543
1883
1218
939
1178
1808
2499
2858
2702
2141
1426
982
1069
1579
2282
2775
2791
2351
1649
1083
982
1355
2043
2656
2836
2531
1884
1237
974
1216
1840
2501
2834
2668
2111
1422
1008
1089
1599
2287
2762
2754
2320
1643
1086
995
1389
2075
2671
2837
2509
1845
1211
965
1214
1841
2502
2831
2654
2098
1418
1017
1116
1626
2307
2773
2767
2304
1600
1057
971
1359
2055
2651
2818
2497
1856
1216
975
1231
1867
2517
2831
2640
2068
1379
977
1094
1632
2321
2791
2747
2268
1571
1058
1009
1426
2128
2704
2832
2482
1813
1186
974
1243
1889
2549
2842
2615
2015
1333
963
1135
1706
2405
2847
2798
2309
1613
1083
1044
1463
2160
2736
2869
2514
1845
1229
1014
1318
1961
2639
2928
2734
2119
1419
1041
1173
1727
2421
2861
2800
2301
1593
1075
1050
1461
2163
2715
2816
2451
1779
1168
975
1275
1931
2559
2841
2606
1982
1294
944
1115
1686
2377
2787
2704
2200
1491
1016
1039
1482
2181
2746
2858
2507
1871
1355
1283
1723
2489
3273
3727
3534
2930
2299
1936
2001
2419
2939
3167
2861
2176
1323
743
714
1179
1898
2438
2507
2139
1471
896
753
1118
1817
2481
2735
2480
1852
1191
887
1095
1692
2379
2775
2670
2138
1433
966
1003
1488
2203
2743
2797
2384
1705
1120
991
1348
2011
2627
2849
2559
1946
1271
967
1179
1791
2463
2862
2758
2241
1535
1079
1107
1583
2274
2800
2850
2433
1748
1174
1058
1414
2087
2708
2943
2671
2038
1392
1107
1323
1931
2621
2993
2858
2310
1614
1168
1222
1723
2419
2942
2993
2591
1919
1376
1271
1637
2310
2922
3121
2809
2160
1479
1201
1441
2064
2727
3087
2921
2354
1661
1219
1280
1776
2465
2964
2976
2528
1821
1255
1145
1497
2146
2720
2903
2609
1957
1309
1045
1280
1887
2539
2874
2707
2143
1441
1020
1104
1618
2318
2802
2796
2346
1655
1118
1035
1423
2107
2679
2833
2513
1855
1213
960
1232
1876
2545
2873
2684
2097
1397
995
1106
1641
2323
2803
2778
2314
1609
1073
1021
1425
2113
2707
2863
2514
1852
1216
982
1239
1886
2539
2847
2657
2075
1369
965
1088
1631
2333
2801
2768
2298
1589
1072
1034
1471
2163
2724
2843
2489
1815
1185
962
1249
1901
2555
2848
2634
2032
1331
961
1115
1674
2385
2832
2765
2270
1562
1045
1023
1457
2156
2704
2806
2435
1763
1137
928
1232
1897
2557
2847
2625
2014
1332
975
1137
1714
2411
2837
2752
2251
1535
1053
1043
1489
2189
2750
2838
2458
1767
1146
960
1274
1942
2607
2875
2627
1994
1296
938
1104
1685
2379
2814
2746
2245
1535
1039
1044
1507
2224
2768
2836
2430
1743
1149
983
1313
1987
2637
2895
2640
2003
1331
986
1168
1757
2454
2875
2783
2263
1562
1089
1111
1573
2247
2768
2823
2422
1743
1168
1035
1377
2055
2673
2893
2629
2000
1325
989
1175
1754
2429
2827
2704
2169
1468
991
1015
1518
2235
2767
2807
2397
1702
1111
976
1328
1999
2623
2831
2543
1905
1234
919
1121
1719
2406
2802
2708
2222
1586
1201
1351
1952
2773
3457
3661
3264
2620
2096
1973
2256
2799
3275
3286
2775
1936
1130
722
863
1451
2146
2542
2431
1890
1180
752
839
1374
2111
2631
2662
2241
1567
1008
914
1293
1983
2603
2794
2493
1851
1200
938
1183
1799
2458
2809
2655
2109
1405
966
1051
1558
2241
2735
2751
2326
1638
1082
980
1369
2058
2669
2861
2557
1906
1253
987
1246
1875
2544
2879
2703
2128
1427
1022
1131
1663
2361
2845
2846
2399
1705
1157
1103
1505
2193
2770
2931
2615
1967
1339
1109
1376
2002
2673
3018
2847
2279
1594
1198
1310
1854
2554
3024
2984
2496
1788
1248
1198
1600
2300
2885
3035
2689
2013
1369
1136
1402
2030
2677
2986
2769
2159
1438
1042
1165
1712
2403
2852
2789
2283
1535
1045
1007
1441
2135
2704
2829
2462
1781
1134
901
1184
1837
2498
2795
2559
1968
1269
893
1040
1602
2305
2749
2694
2194
1479
963
944
1382
2093
2658
2762
2397
1719
1098
897
1205
1871
2512
2790
2559
1966
1280
939
1111
1683
2369
2789
2688
2176
1466
985
995
1453
2145
2693
2779
2384
1698
1103
937
1263
1946
2593
2839
2585
1963
1277
925
1106
1685
2372
2779
2690
2179
1474
1002
1023
1483
2182
2715
2797
2411
1728
1113
935
1252
1919
2559
2827
2579
1963
1278
941
1130
1723
2415
2816
2717
2183
1469
995
1034
1500
2203
2733
2790
2379
1683
1104
963
1314
1967
2579
2807
2546
1920
1250
942
1149
1762
2447
2830
2711
2176
1462
986
1009
1489
2193
2727
2778
2369
1677
1088
962
1322
2000
2636
2864
2582
1946
1283
981
1187
1790
2480
2869
2739
2192
1482
1039
1101
1616
2320
2829
2835
2408
1726
1152
1039
1404
2086
2701
2911
2629
1984
1308
1008
1237
1846
2512
2870
2704
2138
1437
999
1071
1567
2270
2770
2786
2342
1631
1067
965
1344
2031
2639
2823
2512
1862
1215
944
1182
1807
2482
2834
2673
2105
1408
956
1058
1593
2318
2834
2873
2478
1857
1411
1456
1966
2762
3521
3907
3553
2863
2185
1827
1920
2355
2834
2964
2603
1885
1092
637
722
1280
1997
2493
2481
2032
1339
834
804
1232
1947
2541
2704
2401
1758
1138
915
1195
1840
2498
2810
2614
2015
1323
931
1071
1617
2326
2795
2751
2259
1535
1007
982
1424
2121
2691
2820
2470
1802
1179
971
1263
1913
2559
2871
2657
2047
1360
992
1125
1686
2411
2883
2845
2354
1642
1111
1076
1530
2237
2815
2944
2598
1929
1311
1114
1414
2078
2735
3030
2823
2220
1533
1161
1310
1881
2592
3038
2978
2480
1780
1273
1257
1695
2389
2955
3047
2670
1994
1392
1218
1535
2179
2811
3087
2831
2192
1489
1137
1294
1859
2550
2971
2871
2353
1644
1135
1122
1571
2263
2800
2864
2468
1779
1169
993
1306
1953
2559
2825
2589
1966
1269
915
1091
1680
2379
2788
2690
2159
1434
963
976
1445
2161
2710
2773
2369
1680
1074
909
1261
1945
2590
2828
2559
1937
1264
945
1136
1723
2407
2800
2679
2154
1456
999
1041
1520
2223
2749
2789
2375
1681
1089
959
1313
1984
2605
2826
2559
1931
1245
919
1119
1718
2416
2821
2713
2176
1472
989
1038
1531
2241
2755
2790
2373
1678
1095
976
1331
2001
2618
2821
2541
1910
1249
958
1174
1794
2476
2845
2687
2133
1430
993
1061
1589
2288
2783
2800
2368
1664
1088
979
1353
2023
2624
2801
2496
1851
1216
934
1169
1799
2482
2845
2695
2132
1415
971
1050
1559
2263
2762
2768
2320
1621
1061
971
1369
2081
2672
2845
2535
1879
1221
962
1218
1853
2538
2891
2709
2133
1437
1023
1126
1648
2358
2843
2847
2382
1672
1125
1045
1452
2145
2743
2906
2559
1893
1243
992
1251
1873
2537
2865
2684
2099
1391
976
1076
1617
2327
2800
2763
2288
1572
1016
950
1363
2078
2679
2833
2491
1815
1182
953
1216
1867
2529
2832
2633
2036
1343
953
1087
1648
2378
2883
2911
2503
1904
1489
1567
2096
2895
3662
3947
3503
2750
2039
1685
1782
2237
2701
2790
2421
1725
989
614
767
1351
2075
2527
2480
2001
1298
811
817
1280
2000
2593
2727
2375
1711
1090
902
1214
1882
2544
2817
2597
1989
1295
932
1088
1658
2361
2800
2731
2224
1507
996
979
1439
2155
2722
2827
2454
1771
1151
970
1296
1973
2634
2907
2662
2035
1345
1000
1177
1766
2447
2864
2778
2271
1575
1093
1119
1591
2294
2858
2944
2550
1872
1264
1108
1444
2115
2763
3026
2778
2156
1477
1153
1353
1965
2667
3088
2974
2426
1712
1239
1290
1786
2501
3056
3113
2674
1963
1343
1173
1492
2161
2791
3011
2736
2112
1449
1126
1313
1903
2559
2959
2813
2253
1534
1070
1107
1590
2279
2798
2829
2387
1695
1085
942
1291
1968
2593
2798
2499
1859
1196
891
1101
1712
2399
2770
2637
2077
1376
944
1013
1509
2221
2731
2757
2322
1616
1023
907
1279
1973
2581
2785
2482
1831
1166
895
1133
1753
2432
2795
2653
2103
1396
948
1011
1530
2238
2737
2741
2295
1599
1040
944
1325
1998
2602
2793
2486
1831
1174
913
1162
1790
2464
2818
2650
2095
1391
986
1069
1596
2297
2781
2767
2297
1586
1037
960
1357
2047
2640
2804
2487
1831
1175
904
1166
1803
2496
2837
2658
2078
1360
948
1072
1607
2309
2782
2757
2282
1571
1019
968
1392
2082
2669
2822
2472
1795
1153
925
1201
1842
2513
2842
2658
2054
1335
929
1050
1596
2304
2781
2749
2288
1587
1063
1009
1425
2118
2695
2833
2480
1799
1173
954
1242
1904
2577
2896
2704
2128
1434
1046
1168
1725
2423
2874
2811
2305
1600
1085
1051
1479
2170
2745
2850
2471
1766
1125
926
1232
1893
2535
2817
2598
1979
1280
909
1072
1658
2359
2803
2732
2225
1510
998
971
1411
2112
2675
2779
2404
1726
1115
944
1275
1968
2670
2995
2834
2310
1733
1487
1744
2401
3216
3867
3827
3190
2389
1747
1563
1809
2302
2650
2557
2066
1307
683
527
869
1584
2261
2542
2315
1697
1022
713
912
1514
2231
2655
2579
2091
1395
917
932
1398
2112
2661
2736
2336
1631
1023
873
1216
1891
2539
2786
2517
1890
1216
896
1091
1691
2385
2790
2672
2138
1424
944
964
1437
2153
2694
2763
2366
1678
1088
958
1314
1995
2638
2863
2559
1907
1231
927
1139
1755
2451
2863
2750
2207
1519
1077
1134
1623
2333
2859
2900
2480
1781
1205
1099
1488
2177
2815
3027
2736
2094
1419
1117
1317
1925
2609
2989
2846
2289
1583
1131
1179
1669
2359
2863
2878
2422
1727
1137
1031
1391
2059
2670
2859
2544
1870
1188
895
1125
1754
2422
2768
2593
2013
1286
830
891
1405
2112
2606
2611
2174
1456
881
789
1191
1891
2505
2681
2367
1697
1031
768
1005
1629
2294
2623
2452
1886
1183
763
855
1406
2141
2642
2634
2173
1441
875
785
1169
1866
2451
2610
2285
1633
1008
784
1061
1702
2384
2721
2528
1936
1215
795
902
1443
2151
2607
2559
2111
1387
845
795
1227
1938
2527
2671
2319
1636
988
774
1067
1719
2384
2697
2483
1870
1148
746
861
1430
2162
2635
2603
2113
1392
860
829
1251
1957
2516
2638
2279
1589
990
785
1085
1747
2411
2699
2480
1879
1178
795
929
1495
2214
2672
2618
2124
1409
889
872
1317
2025
2605
2714
2363
1700
1088
888
1191
1856
2512
2800
2559
1958
1264
893
1023
1582
2276
2699
2611
2098
1367
850
835
1296
2012
2591
2689
2320
1638
1022
842
1152
1822
2470
2736
2501
1887
1201
854
1042
1647
2346
2767
2687
2177
1461
972
999
1517
2309
2960
3170
2885
2294
1793
1724
2138
2880
3648
3983
3472
2626
1744
1183
1149
1564
2126
2447
2310
1777
1076
605
654
1152
1899
2479
2580
2211
1552
976
850
1216
1909
2559
2816
2550
1923
1261
953
1171
1778
2467
2864
2736
2185
1463
991
1035
1535
2288
2842
2905
2482
1781
1187
1052
1399
2096
2742
2975
2709
2076
1409
1110
1318
1913
2608
2979
2859
2304
1595
1141
1199
1707
2432
2965
3024
2617
1926
1355
1256
1643
2327
2967
3199
2893
2231
1557
1274
1495
2116
2818
3219
3087
2522
1827
1388
1456
1967
2687
3231
3258
2801
2100
1530
1429
1807
2486
3109
3307
2971
2306
1657
1391
1642
2259
2940
3311
3123
2522
1808
1374
1454
1979
2690
3200
3170
2677
1953
1379
1285
1664
2346
2948
3120
2774
2100
1436
1180
1438
2080
2768
3117
2925
2335
1637
1235
1347
1882
2590
3088
3057
2559
1855
1323
1270
1691
2387
2994
3162
2815
2140
1488
1252
1524
2176
2855
3195
2990
2386
1689
1282
1395
1938
2655
3151
3119
2619
1894
1360
1317
1744
2451
3068
3207
2832
2146
1499
1286
1584
2233
2889
3197
2959
2327
1620
1241
1392
1951
2641
3105
3031
2510
1789
1265
1249
1687
2384
2943
3030
2639
1935
1293
1089
1387
2045
2709
3008
2787
2178
1482
1117
1275
1844
2543
2991
2914
2396
1684
1178
1167
1613
2334
2916
3024
2640
1947
1326
1137
1459
2143
2818
3115
2861
2214
1487
1117
1266
1829
2521
2945
2853
2331
1603
1088
1074
1530
2240
2787
2863
2459
1758
1138
960
1290
1968
2634
2895
2637
1998
1309
974
1157
1747
2447
2849
2727
2179
1446
975
1009
1526
2305
2928
3088
2762
2147
1648
1603
2063
2842
3664
4095
3658
2819
1967
1427
1402
1789
2302
2541
2326
1744
1017
572
624
1157
1901
2465
2543
2160
1478
920
811
1191
1904
2557
2787
2510
1870
1200
885
1104
1718
2416
2810
2681
2129
1406
946
1001
1521
2267
2803
2836
2398
1687
1113
976
1346
2037
2667
2874
2559
1917
1244
960
1198
1829
2525
2907
2766
2209
1499
1053
1116
1631
2347
2866
2892
2449
1746
1169
1077
1467
2182
2815
3024
2722
2066
1399
1134
1388
2023
2722
3095
2938
2365
1674
1249
1351
1883
2597
3107
3099
2625
1911
1344
1246
1637
2322
2934
3125
2795
2121
1458
1197
1454
2065
2742
3088
2896
2307
1600
1162
1253
1775
2470
2932
2873
2363
1617
1036
942
1326
2007
2605
2755
2410
1727
1068
807
1072
1722
2402
2735
2554
1969
1251
829
927
1474
2193
2672
2638
2160
1438
897
845
1265
1981
2593
2746
2410
1727
1078
849
1131
1787
2460
2769
2559
1963
1264
867
987
1535
2253
2723
2676
2187
1467
950
918
1359
2064
2627
2753
2395
1713
1088
875
1163
1815
2483
2783
2559
1978
1292
912
1047
1606
2317
2768
2719
2235
1526
993
949
1379
2071
2635
2732
2362
1682
1073
891
1201
1859
2506
2785
2558
1968
1289
944
1111
1699
2413
2859
2800
2304
1601
1099
1088
1529
2234
2788
2883
2512
1829
1229
1063
1391
2068
2719
2987
2734
2102
1393
1023
1183
1742
2420
2829
2726
2202
1488
1006
1023
1517
2230
2765
2817
2401
1697
1101
937
1271
1949
2604
2848
2579
1948
1277
949
1146
1766
2443
2862
2775
2295
1655
1251
1364
1959
2783
3482
3702
3323
2683
2123
1933
2147
2629
3050
3038
2531
1715
880
482
642
1257
1998
2417
2320
1801
1099
653
720
1249
2001
2557
2614
2211
1523
944
814
1168
1893
2513
2737
2451
1808
1136
826
1035
1667
2373
2759
2624
2071
1353
902
960
1472
2192
2725
2751
2304
1578
1002
895
1285
1997
2631
2836
2538
1863
1182
892
1133
1767
2456
2822
2675
2111
1390
960
1069
1619
2335
2828
2830
2378
1664
1091
1008
1437
2145
2768
2960
2637
1968
1305
1056
1327
1982
2686
3043
2864
2283
1570
1136
1232
1779
2501
3008
2994
2514
1793
1221
1134
1526
2226
2831
2975
2622
1927
1265
1013
1280
1930
2624
2960
2770
2160
1421
993
1104
1635
2337
2811
2767
2271
1526
967
898
1317
2020
2614
2753
2403
1705
1023
754
1023
1695
2383
2707
2512
1894
1168
756
877
1448
2177
2659
2625
2138
1418
894
854
1281
1990
2578
2704
2351
1650
1001
785
1085
1756
2432
2736
2521
1909
1202
816
951
1526
2256
2723
2675
2182
1456
921
887
1344
2075
2655
2766
2387
1694
1056
857
1175
1872
2544
2853
2624
1984
1280
913
1085
1668
2377
2821
2747
2223
1483
962
950
1413
2141
2728
2842
2470
1791
1162
962
1265
1934
2610
2906
2675
2057
1359
1006
1178
1772
2493
2949
2868
2339
1613
1107
1109
1571
2273
2819
2879
2447
1723
1089
919
1263
1955
2635
2895
2623
1959
1237
886
1073
1685
2412
2839
2743
2202
1473
977
1001
1488
2227
2786
2847
2431
1711
1095
949
1314
2017
2687
2965
2746
2170
1574
1361
1686
2403
3263
3936
3894
3249
2497
1954
1842
2143
2640
2944
2776
2178
1346
701
545
889
1627
2302
2547
2275
1664
999
720
961
1623
2358
2787
2687
2157
1445
977
1023
1534
2259
2809
2846
2407
1689
1098
985
1374
2096
2738
2955
2651
1974
1296
990
1215
1839
2544
2946
2815
2254
1531
1073
1138
1664
2386
2895
2905
2454
1738
1157
1067
1456
2174
2809
3012
2717
2064
1392
1104
1338
1971
2674
3046
2891
2322
1611
1162
1248
1792
2527
3063
3087
2631
1921
1356
1266
1676
2384
3023
3217
2879
2205
1530
1261
1499
2129
2823
3195
3015
2417
1692
1255
1350
1895
2609
3117
3095
2608
1875
1294
1199
1591
2283
2879
3024
2661
1962
1294
1041
1307
1954
2640
2961
2759
2145
1396
957
1067
1609
2323
2807
2770
2275
1527
977
944
1388
2111
2706
2847
2487
1802
1153
915
1198
1857
2542
2864
2655
2046
1325
931
1075
1653
2368
2832
2779
2286
1554
1007
961
1394
2111
2695
2830
2469
1777
1141
934
1234
1904
2559
2867
2645
2025
1319
944
1108
1690
2395
2845
2789
2289
1573
1046
1017
1479
2180
2757
2864
2472
1774
1139
950
1258
1925
2589
2869
2636
2009
1311
934
1087
1655
2366
2815
2741
2231
1518
1011
1020
1491
2214
2781
2873
2475
1776
1169
995
1326
2000
2663
2929
2681
2038
1341
977
1150
1737
2434
2859
2746
2196
1459
944
944
1423
2151
2707
2795
2401
1709
1091
926
1264
1947
2597
2834
2559
1908
1207
883
1095
1722
2435
2854
2736
2196
1471
971
991
1499
2272
2877
3005
2671
2064
1573
1535
2006
2811
3632
4095
3674
2846
2003
1472
1439
1822
2305
2539
2304
1690
938
489
573
1105
1874
2447
2517
2121
1415
838
723
1104
1851
2521
2767
2487
1838
1158
859
1087
1730
2437
2825
2688
2118
1392
931
994
1510
2246
2775
2816
2379
1666
1082
960
1334
2032
2659
2863
2555
1882
1232
941
1175
1810
2509
2880
2734
2166
1450
992
1072
1600
2327
2853
2883
2446
1739
1168
1087
1488
2208
2825
3005
2670
1986
1328
1072
1343
2006
2727
3115
2939
2352
1648
1216
1299
1830
2546
3055
3043
2559
1840
1269
1187
1600
2305
2928
3101
2750
2054
1385
1118
1373
2009
2688
3005
2806
2204
1470
1039
1147
1678
2386
2879
2845
2350
1602
1039
970
1387
2092
2678
2816
2451
1754
1091
845
1102
1747
2416
2736
2524
1921
1196
791
914
1487
2219
2678
2624
2125
1392
848
810
1246
1975
2559
2693
2338
1638
976
767
1074
1747
2433
2741
2527
1903
1184
787
917
1493
2236
2702
2641
2155
1437
913
880
1317
2026
2608
2723
2343
1638
979
784
1104
1799
2489
2795
2558
1930
1211
822
960
1535
2267
2704
2625
2127
1408
897
889
1353
2083
2655
2749
2368
1668
1041
857
1186
1871
2527
2799
2555
1933
1241
893
1072
1675
2402
2846
2761
2235
1505
994
997
1457
2178
2736
2804
2383
1658
1007
822
1158
1858
2523
2781
2519
1879
1189
850
1041
1651
2357
2768
2667
2131
1410
925
949
1438
2175
2736
2795
2377
1670
1059
907
1263
1965
2615
2887
2667
2071
1457
1231
1535
2274
3103
3713
3702
3152
2448
1941
1863
2197
2721
3046
2853
2223
1342
640
454
816
1554
2224
2480
2214
1582
903
610
833
1483
2220
2610
2470
1889
1142
667
736
1277
2047
2617
2667
2241
1525
944
833
1223
1951
2595
2819
2530
1867
1174
890
1125
1775
2499
2887
2729
2133
1395
947
1039
1590
2338
2871
2889
2418
1687
1104
1012
1410
2154
2815
3038
2733
2054
1367
1098
1355
2013
2734
3120
2935
2351
1635
1202
1295
1840
2590
3125
3147
2678
1968
1407
1327
1739
2463
3117
3315
2991
2314
1653
1387
1639
2269
2950
3302
3098
2465
1737
1301
1401
1941
2666
3175
3143
2640
1915
1355
1287
1694
2384
2991
3147
2785
2095
1424
1171
1411
2082
2767
3088
2866
2245
1518
1105
1235
1802
2512
2994
2954
2451
1743
1184
1126
1557
2271
2866
3003
2639
1943
1284
1063
1349
2011
2695
3011
2800
2179
1455
1056
1193
1771
2499
2983
2933
2437
1712
1162
1113
1558
2271
2859
2987
2618
1927
1296
1093
1392
2064
2735
3024
2775
2144
1439
1053
1208
1790
2505
2960
2896
2378
1647
1124
1104
1563
2288
2864
2967
2586
1881
1237
1043
1359
2039
2705
2978
2736
2112
1411
1057
1225
1810
2545
2998
2915
2382
1655
1150
1162
1639
2365
2928
3003
2583
1857
1216
1017
1334
2010
2671
2928
2671
2055
1339
995
1181
1777
2479
2896
2785
2252
1534
1051
1072
1535
2261
2810
2873
2462
1767
1161
1001
1345
2023
2665
2905
2625
1984
1294
972
1173
1802
2550
3024
2979
2512
1897
1520
1677
2272
3103
3879
4017
3376
2511
1744
1408
1555
2047
2512
2608
2241
1535
841
551
784
1437
2176
2579
2453
1922
1228
801
885
1429
2182
2726
2783
2362
1647
1046
928
1313
2021
2667
2874
2559
1914
1243
943
1171
1801
2509
2896
2751
2176
1450
985
1051
1569
2292
2819
2849
2409
1697
1120
1018
1407
2128
2752
2951
2631
1958
1280
1008
1263
1907
2610
2976
2818
2245
1520
1081
1159
1685
2427
2969
2995
2535
1815
1247
1168
1582
2277
2896
3088
2758
2086
1424
1178
1434
2085
2767
3122
2933
2347
1643
1207
1299
1839
2553
3068
3054
2559
1840
1275
1194
1604
2304
2903
3065
2704
1994
1307
1042
1303
1951
2624
2935
2729
2124
1398
975
1088
1640
2357
2831
2793
2294
1554
983
911
1323
2032
2631
2770
2413
1719
1069
835
1117
1779
2457
2779
2559
1958
1249
855
985
1535
2259
2727
2681
2179
1449
912
881
1326
2032
2617
2743
2378
1695
1067
851
1149
1811
2483
2783
2559
1947
1239
865
1008
1598
2323
2782
2716
2202
1456
921
903
1358
2090
2675
2789
2410
1713
1090
903
1210
1885
2549
2841
2614
1998
1296
928
1094
1682
2394
2839
2769
2251
1520
1005
1007
1475
2205
2771
2859
2455
1758
1127
930
1249
1918
2559
2819
2559
1926
1218
862
1039
1637
2349
2771
2672
2149
1411
912
912
1378
2107
2666
2736
2327
1623
1023
875
1222
1920
2581
2834
2581
1936
1239
895
1083
1693
2407
2832
2775
2303
1659
1264
1397
1985
2807
3505
3695
3232
2480
1817
1552
1743
2249
2706
2741
2288
1494
738
387
585
1200
1933
2340
2235
1698
989
544
602
1125
1877
2441
2503
2107
1427
848
730
1101
1803
2431
2646
2350
1680
989
688
902
1554
2264
2645
2502
1943
1219
768
823
1344
2079
2622
2655
2218
1488
905
789
1166
1867
2497
2714
2405
1746
1077
799
1045
1691
2391
2761
2606
2029
1303
855
945
1494
2249
2783
2800
2354
1648
1075
987
1393
2118
2751
2944
2630
1968
1303
1053
1328
1971
2676
3040
2864
2265
1535
1111
1207
1751
2477
2982
2974
2495
1765
1200
1123
1525
2225
2835
2999
2653
1962
1288
1018
1271
1906
2588
2925
2729
2125
1400
979
1088
1631
2341
2822
2800
2323
1598
1031
961
1379
2096
2695
2838
2480
1791
1147
919
1215
1870
2555
2871
2666
2055
1331
933
1069
1637
2357
2832
2794
2304
1591
1044
1006
1446
2175
2768
2909
2547
1853
1200
965
1260
1922
2607
2926
2720
2113
1396
1008
1151
1719
2430
2889
2835
2330
1611
1090
1076
1525
2240
2819
2938
2559
1881
1253
1057
1358
2013
2671
2958
2733
2131
1443
1087
1245
1818
2527
2984
2917
2411
1712
1200
1183
1619
2321
2880
2986
2611
1938
1334
1158
1456
2101
2707
2954
2699
2085
1411
1086
1247
1811
2480
2879
2789
2281
1590
1117
1133
1567
2275
2806
2878
2493
1813
1200
1018
1327
1968
2586
2823
2582
1979
1339
1021
1186
1755
2416
2800
2691
2197
1554
1152
1243
1786
2557
3200
3394
3103
2526
2035
1937
2251
2833
3359
3435
2958
2157
1326
857
930
1443
2110
2494
2403
1909
1225
785
831
1299
1995
2522
2598
2227
1586
1038
914
1273
1935
2539
2754
2495
1890
1263
978
1186
1773
2431
2782
2658
2145
1472
1040
1093
1579
2253
2750
2795
2389
1733
1186
1072
1406
2054
2653
2862
2579
1963
1337
1072
1283
1874
2531
2885
2753
2220
1535
1120
1185
1671
2356
2857
2883
2448
1776
1235
1145
1509
2179
2779
2971
2689
2073
1455
1207
1452
2076
2725
3081
2919
2362
1695
1291
1374
1872
2544
3008
2995
2544
1862
1328
1247
1646
2293
2864
3012
2685
2037
1403
1155
1392
1989
2635
2954
2769
2208
1520
1115
1207
1712
2379
2812
2778
2325
1639
1098
1023
1402
2065
2629
2779
2459
1803
1200
967
1225
1843
2482
2785
2595
2019
1360
976
1085
1600
2263
2707
2673
2229
1535
1037
990
1397
2077
2640
2770
2433
1781
1170
963
1244
1871
2501
2785
2559
2005
1343
975
1120
1658
2333
2768
2731
2265
1585
1079
1035
1438
2116
2665
2779
2442
1792
1187
983
1267
1890
2512
2787
2581
2002
1344
985
1130
1682
2358
2780
2719
2243
1566
1078
1069
1490
2175
2723
2823
2453
1792
1200
1019
1322
1967
2603
2861
2631
2038
1380
1040
1185
1727
2384
2790
2704
2210
1514
1023
1023
1465
2149
2675
2755
2371
1710
1125
961
1279
1931
2559
2815
2559
1943
1275
943
1111
1669
2341
2746
2659
2158
1455
993
1008
1467
2160
2687
2765
2407
1777
1254
1177
1597
2356
3108
3504
3337
2779
2177
1869
1995
2444
2957
3187
2875
2171
1322
749
711
1167
1879
2430
2512
2137
1461
886
741
1081
1751
2377
2626
2381
1779
1143
857
1070
1664
2320
2675
2549
2032
1347
907
961
1472
2163
2663
2704
2301
1618
1050
934
1281
1933
2529
2721
2423
1783
1131
846
1069
1659
2332
2698
2558
2026
1344
916
976
1458
2142
2637
2655
2231
1552
999
912
1283
1964
2559
2768
2476
1839
1190
915
1146
1755
2421
2779
2643
2119
1452
1043
1119
1616
2301
2779
2780
2352
1669
1117
1033
1406
2077
2673
2848
2542
1904
1266
1003
1241
1850
2496
2813
2635
2070
1379
962
1051
1559
2238
2698
2681
2224
1535
997
913
1288
1949
2523
2675
2354
1712
1083
839
1087
1712
2358
2670
2480
1911
1227
842
952
1462
2176
2624
2589
2131
1451
931
880
1287
1971
2539
2672
2339
1683
1063
841
1104
1746
2402
2704
2512
1949
1265
897
1023
1573
2264
2704
2656
2181
1497
995
987
1407
2090
2644
2753
2398
1747
1146
944
1236
1887
2518
2817
2611
2011
1331
971
1106
1662
2352
2778
2720
2239
1535
1041
1023
1467
2163
2711
2804
2453
1780
1187
1008
1318
1967
2597
2864
2642
2055
1373
1023
1184
1750
2435
2864
2807
2320
1628
1130
1117
1535
2224
2779
2879
2502
1834
1231
1050
1356
2003
2624
2864
2617
1999
1333
1009
1178
1744
2417
2816
2731
2229
1527
1088
1102
1535
2234
2768
2842
2459
1794
1214
1060
1376
2026
2643
2887
2638
2027
1359
1040
1223
1808
2477
2887
2832
2391
1807
1471
1626
2193
2986
3715
3933
3454
2733
2096
1821
1985
2455
2879
2919
2501
1780
1085
775
976
1583
2269
2651
2535
2021
1344
903
967
1475
2193
2721
2779
2384
1712
1152
1023
1378
2053
2658
2863
2579
1942
1311
1041
1259
1863
2531
2896
2757
2225
1531
1104
1166
1669
2353
2846
2864
2433
1757
1195
1088
1444
2114
2705
2896
2619
1994
1367
1111
1344
1953
2614
2960
2805
2256
1591
1185
1268
1773
2455
2954
2956
2512
1840
1297
1216
1597
2272
2867
3051
2748
2115
1489
1248
1488
2110
2767
3097
2907
2339
1659
1250
1352
1871
2545
3021
3008
2544
1857
1314
1237
1617
2275
2854
3015
2694
2042
1418
1171
1405
2000
2639
2945
2755
2177
1491
1103
1205
1717
2400
2863
2839
2379
1682
1147
1077
1462
2128
2688
2814
2480
1838
1216
1000
1268
1904
2544
2843
2640
2064
1380
1004
1126
1652
2329
2773
2731
2261
1581
1072
1031
1443
2133
2683
2798
2447
1779
1165
960
1261
1904
2550
2834
2628
2043
1371
1020
1167
1713
2384
2807
2736
2244
1535
1057
1038
1456
2131
2669
2766
2416
1776
1170
976
1280
1915
2536
2799
2559
1974
1297
947
1110
1679
2353
2775
2704
2201
1507
1021
1019
1469
2162
2704
2796
2429
1770
1194
1015
1306
1931
2551
2800
2579
1986
1344
1023
1199
1774
2447
2849
2753
2241
1535
1070
1092
1552
2240
2759
2826
2428
1744
1154
991
1318
1972
2604
2832
2559
1953
1291
961
1135
1719
2395
2793
2687
2171
1477
1017
1047
1517
2198
2711
2768
2375
1693
1121
987
1330
1993
2602
2816
2551
1930
1279
977
1180
1765
2455
2878
2804
2334
1731
1392
1566
2155
2941
3603
3774
3312
2593
1955
1708
1886
2364
2798
2837
2426
1712
1018
724
931
1535
2239
2604
2465
1936
1255
848
944
1447
2156
2655
2683
2274
1606
1054
942
1301
1961
2553
2752
2464
1846
1209
943
1169
1775
2451
2812
2650
2098
1418
1008
1086
1591
2281
2765
2769
2351
1675
1136
1051
1421
2089
2665
2827
2517
1873
1261
1018
1275
1887
2532
2864
2704
2153
1478
1087
1197
1715
2390
2862
2861
2422
1747
1223
1152
1535
2222
2791
2959
2656
2007
1380
1139
1387
1998
2668
2999
2830
2273
1613
1226
1329
1847
2512
2960
2928
2463
1792
1237
1172
1577
2257
2835
2963
2612
1950
1330
1114
1370
1984
2623
2920
2713
2128
1451
1074
1185
1711
2378
2813
2767
2294
1595
1070
1015
1433
2126
2700
2823
2470
1797
1173
956
1234
1862
2519
2822
2609
2004
1329
976
1117
1674
2363
2791
2722
2227
1520
1009
991
1462
2145
2711
2818
2451
1776
1166
983
1286
1922
2553
2831
2608
2007
1344
999
1159
1722
2405
2818
2727
2223
1525
1042
1051
1510
2217
2748
2814
2416
1727
1137
973
1301
1981
2631
2887
2625
1995
1319
976
1148
1724
2409
2821
2733
2215
1509
1017
1023
1493
2206
2749
2807
2390
1694
1095
946
1284
1951
2559
2803
2534
1919
1260
960
1181
1801
2496
2896
2772
2224
1490
1008
1023
1503
2218
2758
2825
2421
1739
1156
1008
1354
2039
2674
2913
2643
1998
1315
1006
1227
1847
2542
2928
2800
2244
1520
1057
1098
1584
2287
2800
2818
2368
1651
1069
951
1332
2030
2658
2864
2559
1915
1233
939
1166
1798
2483
2864
2719
2160
1456
989
1065
1569
2283
2785
2791
2342
1634
1068
959
1343
2047
2679
2885
2611
1988
1392
1193
1535
2288
3111
3659
3571
2995
2319
1887
1914
2318
2878
3225
3024
2385
1521
849
718
1104
1825
2448
2627
2311
1654
1002
756
1023
1698
2411
2754
2599
2021
1318
886
986
1535
2267
2762
2747
2286
1578
1023
953
1370
2096
2688
2843
2483
1795
1141
913
1202
1867
2555
2895
2703
2107
1390
970
1087
1643
2363
2834
2815
2331
1604
1059
1010
1442
2173
2769
2915
2557
1872
1229
1002
1295
1966
2651
2975
2775
2176
1471
1079
1213
1776
2493
2961
2899
2386
1665
1136
1128
1591
2316
2913
3036
2667
1973
1334
1124
1418
2090
2757
3039
2794
2171
1459
1087
1232
1817
2535
2987
2914
2391
1671
1137
1106
1553
2275
2853
2951
2545
1830
1190
995
1313
1991
2657
2928
2672
2018
1296
923
1104
1707
2416
2843
2751
2217
1485
975
971
1415
2152
2709
2794
2387
1680
1072
898
1227
1905
2559
2832
2580
1936
1232
889
1082
1681
2396
2825
2733
2192
1456
963
975
1454
2186
2741
2827
2422
1711
1093
935
1280
1974
2625
2867
2602
1940
1249
917
1114
1727
2431
2834
2722
2177
1467
983
1014
1514
2240
2771
2832
2416
1706
1106
966
1311
1989
2625
2857
2559
1916
1233
925
1145
1773
2481
2894
2769
2213
1482
998
1042
1535
2277
2810
2833
2385
1666
1069
930
1305
2005
2641
2864
2559
1918
1244
957
1179
1779
2501
2886
2731
2159
1439
993
1067
1593
2321
2846
2858
2399
1675
1093
983
1366
2091
2722
2917
2608
1931
1251
979
1243
1891
2559
2954
2779
2189
1463
1038
1136
1681
2413
2929
2926
2443
1711
1125
1019
1407
2106
2713
2893
2556
1852
1200
941
1203
1866
2559
2907
2736
2135
1407
965
1066
1613
2336
2834
2831
2358
1648
1092
1023
1424
2130
2739
2896
2544
1870
1216
963
1235
1895
2595
2961
2827
2299
1680
1385
1627
2288
3129
3826
3881
3280
2495
1855
1648
1889
2405
2821
2797
2326
1585
922
705
990
1680
2375
2699
2491
1888
1192
817
960
1535
2286
2763
2736
2251
1521
991
959
1405
2135
2742
2875
2512
1815
1167
945
1264
1939
2626
2926
2690
2068
1357
967
1114
1701
2416
2879
2827
2311
1573
1054
1037
1490
2227
2820
2931
2539
1827
1200
1017
1347
2031
2704
2993
2749
2123
1414
1061
1227
1821
2540
2989
2902
2381
1661
1160
1174
1655
2383
2935
3024
2624
1930
1321
1160
1495
2194
2864
3143
2877
2225
1521
1167
1339
1933
2655
3091
2989
2441
1715
1205
1205
1694
2403
2967
3037
2610
1895
1263
1088
1423
2116
2768
3008
2729
2070
1360
1015
1208
1815
2512
2910
2791
2242
1507
1002
1007
1488
2224
2784
2841
2416
1687
1083
942
1303
1999
2640
2867
2585
1920
1216
903
1130
1744
2448
2846
2710
2153
1424
953
997
1513
2241
2773
2804
2371
1665
1073
946
1328
2032
2677
2890
2593
1931
1243
930
1151
1776
2472
2843
2705
2141
1411
959
1040
1566
2291
2816
2835
2384
1662
1072
955
1344
2064
2700
2897
2592
1917
1230
934
1159
1806
2499
2865
2703
2115
1392
947
1032
1571
2304
2810
2812
2351
1631
1070
987
1392
2093
2697
2862
2528
1840
1180
936
1195
1835
2527
2872
2691
2101
1374
944
1060
1618
2353
2848
2829
2349
1616
1059
983
1404
2130
2754
2929
2597
1893
1231
967
1232
1903
2595
2930
2747
2147
1439
1033
1151
1701
2407
2873
2829
2339
1615
1051
981
1411
2135
2731
2869
2511
1827
1168
923
1200
1859
2535
2864
2659
2047
1337
937
1072
1648
2368
2847
2803
2298
1566
1022
987
1431
2157
2745
2877
2503
1808
1171
978
1322
2063
2821
3234
3104
2559
1984
1712
1937
2559
3318
3863
3626
2871
1941
1205
978
1265
1907
2433
2529
2174
1487
869
683
996
1684
2361
2651
2439
1838
1159
821
1013
1633
2366
2818
2752
2241
1491
979
976
1440
2178
2751
2832
2443
1744
1131
944
1273
1949
2609
2863
2605
1969
1283
952
1149
1776
2487
2914
2815
2273
1531
1022
1040
1526
2256
2816
2880
2477
1789
1186
1033
1374
2068
2726
2989
2735
2101
1408
1088
1280
1885
2597
3019
2917
2359
1635
1148
1175
1677
2417
2987
3052
2629
1918
1310
1173
1533
2239
2885
3137
2834
2170
1473
1151
1350
1967
2666
3059
2911
2342
1609
1138
1187
1689
2409
2937
2966
2513
1792
1176
1043
1397
2095
2733
2944
2640
1966
1265
948
1161
1776
2471
2843
2683
2109
1382
931
997
1510
2237
2745
2759
2311
1589
1008
911
1297
2024
2659
2850
2530
1841
1159
880
1122
1757
2458
2830
2673
2093
1361
913
991
1520
2246
2771
2793
2339
1615
1035
926
1315
2033
2672
2849
2518
1854
1193
923
1163
1798
2493
2837
2650
2059
1343
934
1045
1603
2305
2791
2778
2305
1585
1013
949
1376
2091
2692
2852
2513
1837
1179
927
1194
1840
2522
2861
2671
2097
1358
944
1062
1614
2333
2817
2796
2314
1589
1035
973
1394
2115
2724
2870
2510
1823
1168
930
1220
1897
2559
2897
2695
2086
1375
977
1102
1661
2378
2859
2816
2323
1603
1073
1047
1487
2204
2781
2894
2511
1821
1152
912
1200
1872
2557
2870
2655
2032
1312
919
1058
1630
2343
2797
2736
2230
1503
975
960
1415
2133
2717
2831
2455
1766
1130
923
1232
1903
2559
2849
2624
2000
1287
926
1118
1751
2527
3055
3071
2651
2064
1659
1755
2294
3089
3794
3885
3248
2352
1531
1147
1280
1811
2363
2559
2304
1659
970
639
823
1429
2149
2592
2512
2011
1309
834
877
1347
2115
2686
2771
2363
1648
1040
889
1241
1938
2606
2863
2608
1956
1254
918
1108
1724
2430
2842
2730
2181
1451
966
1004
1497
2218
2756
2826
2413
1708
1109
976
1343
2038
2691
2919
2629
1974
1291
975
1195
1810
2528
2935
2813
2263
1535
1082
1121
1633
2357
2898
2946
2511
1809
1226
1105
1485
2197
2851
3095
2805
2160
1473
1168
1374
1999
2701
3095
2946
2381
1663
1190
1239
1744
2463
2991
3018
2559
1839
1246
1131
1501
2192
2799
2980
2663
1986
1310
1033
1259
1885
2579
2939
2766
2169
1427
976
1063
1571
2308
2806
2803
2345
1614
1023
926
1321
2031
2666
2850
2527
1840
1145
860
1094
1765
2467
2835
2677
2091
1374
937
1023
1563
2288
2769
2758
2270
1562
1007
945
1359
2071
2674
2832
2503
1823
1163
900
1174
1836
2528
2875
2688
2091
1371
951
1066
1614
2337
2820
2785
2293
1573
1017
959
1385
2115
2731
2882
2531
1847
1197
957
1235
1892
2559
2885
2674
2067
1346
947
1075
1648
2375
2839
2782
2288
1574
1033
988
1425
2147
2739
2867
2501
1807
1162
939
1232
1913
2587
2894
2679
2074
1367
987
1131
1711
2445
2915
2847
2336
1604
1072
1053
1479
2208
2794
2923
2549
1866
1241
1058
1369
2042
2700
2978
2734
2094
1363
989
1136
1723
2435
2880
2800
2266
1531
1022
1021
1488
2211
2779
2869
2478
1776
1152
978
1307
1979
2637
2906
2653
2022
1323
977
1157
1747
2452
2879
2779
2242
1526
1040
1063
1554
2304
2916
3067
2738
2134
1631
1584
2035
2831
3671
4095
3728
2905
2079
1535
1524
1921
2446
2717
2514
1936
1201
736
778
1273
2017
2577
2661
2269
1579
976
848
1227
1952
2623
2863
2599
1951
1269
948
1161
1756
2478
2879
2761
2214
1494
1034
1081
1598
2322
2862
2905
2475
1767
1168
1036
1381
2110
2754
2992
2700
2035
1356
1059
1281
1904
2603
2986
2845
2279
1567
1117
1187
1712
2429
2958
2990
2543
1834
1250
1147
1535
2251
2885
3103
2800
2128
1463
1187
1425
2063
2754
3135
2975
2402
1702
1264
1357
1889
2613
3136
3145
2672
1951
1370
1279
1675
2379
3001
3193
2850
2171
1499
1226
1459
2096
2779
3135
2934
2335
1610
1183
1280
1808
2507
2985
2960
2482
1763
1194
1109
1507
2202
2805
2960
2618
1933
1275
1017
1280
1927
2621
2954
2761
2163
1442
1013
1119
1690
2389
2880
2849
2368
1655
1110
1062
1475
2188
2781
2925
2579
1903
1259
1035
1306
1975
2658
2975
2767
2145
1415
1008
1149
1715
2444
2926
2880
2395
1685
1141
1087
1511
2227
2815
2943
2587
1899
1255
1039
1328
1990
2681
2991
2761
2134
1431
1059
1199
1761
2464
2927
2864
2352
1636
1122
1104
1563
2283
2864
2966
2599
1900
1264
1056
1359
2026
2689
2975
2747
2125
1416
1061
1222
1803
2501
2939
2859
2345
1632
1122
1120
1596
2319
2879
2971
2579
1889
1273
1095
1414
2093
2760
3039
2800
2173
1477
1129
1298
1889
2597
3022
2915
2362
1617
1101
1096
1535
2285
2847
2934
2532
1831
1213
1046
1383
2067
2713
2965
2697
2060
1365
1039
1222
1829
2539
2955
2847
2304
1581
1088
1107
1597
2314
2855
2917
2501
1807
1205
1072
1431
2154
2847
3174
2991
2451
1899
1701
2006
2698
3511
4095
3898
3071
2192
1533
1372
1665
2210
2624
2602
2161
1473
912
799
1168
1857
2490
2711
2449
1834
1195
926
1168
1798
2487
2873
2739
2198
1510
1081
1136
1635
2338
2841
2864
2431
1733
1171
1062
1419
2103
2716
2921
2640
2001
1357
1087
1314
1914
2578
2932
2787
2231
1535
1114
1184
1691
2387
2896
2923
2486
1825
1278
1183
1558
2237
2830
3011
2704
2064
1410
1159
1401
2013
2691
3049
2899
2354
1681
1265
1357
1871
2559
3063
3066
2618
1931
1388
1312
1698
2368
2955
3126
2800
2163
1535
1293
1531
2129
2771
3102
2911
2338
1649
1241
1343
1866
2546
3011
2980
2509
1810
1278
1206
1598
2258
2821
2960
2625
1969
1338
1101
1355
1975
2620
2913
2705
2128
1438
1050
1168
1706
2389
2832
2791
2320
1637
1104
1050
1456
2143
2704
2822
2478
1820
1206
997
1283
1932
2587
2882
2683
2096
1410
1041
1171
1711
2385
2817
2758
2285
1599
1091
1072
1489
2166
2717
2820
2478
1827
1237
1055
1347
1971
2614
2889
2663
2065
1387
1020
1159
1721
2411
2845
2777
2303
1604
1103
1089
1521
2209
2747
2848
2490
1819
1238
1059
1351
1996
2626
2884
2639
2033
1363
1023
1178
1747
2437
2864
2793
2291
1600
1104
1090
1533
2212
2752
2847
2480
1822
1231
1058
1371
2011
2641
2891
2651
2063
1414
1093
1264
1834
2512
2913
2822
2317
1640
1179
1199
1657
2339
2861
2919
2512
1829
1227
1063
1370
2013
2625
2864
2618
1997
1339
1030
1213
1791
2463
2847
2733
2207
1516
1070
1104
1582
2271
2795
2845
2445
1771
1195
1059
1380
2021
2627
2851
2592
1973
1328
1040
1249
1866
2580
3028
2994
2559
1999
1664
1815
2385
3173
3875
3954
3328
2496
1770
1449
1598
2066
2499
2589
2253
1612
974
714
947
1571
2255
2631
2515
2013
1346
939
1019
1525
2237
2739
2765
2354
1685
1142
1038
1392
2061
2653
2829
2522
1887
1247
976
1203
1821
2490
2837
2690
2154
1474
1065
1142
1650
2351
2833
2842
2415
1730
1179
1087
1456
2130
2725
2899
2589
1951
1328
1082
1323
1938
2599
2927
2768
2211
1554
1166
1267
1785
2465
2944
2941
2490
1811
1291
1227
1616
2288
2871
3026
2714
2086
1472
1243
1501
2116
2755
3071
2890
2320
1651
1267
1372
1894
2559
3014
2977
2509
1830
1296
1234
1627
2285
2839
2975
2640
1995
1375
1153
1411
2021
2652
2938
2733
2148
1467
1084
1189
1721
2391
2829
2787
2307
1617
1105
1071
1475
2156
2704
2820
2471
1823
1216
1008
1291
1906
2534
2807
2597
2000
1328
974
1111
1658
2337
2758
2694
2224
1558
1072
1057
1485
2160
2699
2799
2427
1761
1155
965
1261
1904
2534
2799
2583
1999
1343
1007
1164
1721
2399
2801
2719
2224
1535
1072
1072
1503
2181
2711
2805
2446
1782
1199
1031
1328
1967
2559
2816
2579
1971
1319
998
1165
1719
2380
2771
2689
2199
1531
1073
1088
1535
2219
2721
2774
2381
1715
1139
988
1319
1982
2607
2827
2559
1951
1313
1011
1197
1771
2430
2816
2718
2215
1554
1114
1145
1610
2287
2798
2849
2448
1791
1233
1100
1426
2073
2668
2868
2583
1957
1294
990
1174
1747
2403
2771
2651
2129
1443
994
1053
1531
2214
2711
2750
2340
1665
1104
995
1335
1984
2589
2787
2510
1900
1274
991
1200
1793
2448
2800
2660
2125
1457
1070
1178
1726
2481
3086
3231
2911
2351
1900
1866
2271
2943
3551
3650
3122
2281
1442
967
1014
1486
2087
2415
2286
1776
1134
751
832
1347
2057
2550
2587
2190
1531
1009
939
1311
1977
2559
2747
2459
1839
1221
971
1215
1808
2457
2793
2637
2097
1424
1013
1101
1600
2286
2751
2739
2302
1637
1115
1040
1419
2089
2654
2805
2495
1860
1241
1005
1260
1872
2512
2833
2672
2117
1446
1070
1187
1723
2387
2842
2813
2361
1687
1174
1132
1535
2218
2786
2931
2624
1997
1393
1177
1440
2073
2719
3024
2836
2278
1627
1251
1359
1869
2518
2962
2926
2461
1793
1299
1264
1653
2320
2863
2971
2619
1966
1360
1152
1410
2022
2647
2918
2706
2128
1458
1098
1215
1739
2398
2814
2752
2279
1600
1104
1066
1456
2116
2641
2745
2388
1741
1147
969
1262
1898
2513
2783
2557
1979
1322
970
1110
1646
2299
2704
2640
2175
1494
1002
1001
1435
2112
2647
2742
2385
1728
1135
959
1264
1900
2511
2753
2515
1923
1270
944
1110
1681
2352
2752
2667
2173
1488
1013
1015
1451
2123
2645
2727
2365
1706
1123
970
1282
1926
2543
2781
2535
1937
1285
959
1146
1715
2379
2759
2658
2149
1461
1003
1017
1481
2163
2676
2736
2356
1699
1127
979
1301
1943
2551
2782
2522
1914
1264
955
1154
1738
2407
2774
2660
2139
1456
1019
1071
1535
2224
2738
2794
2399
1731
1164
1044
1391
2039
2640
2850
2581
1946
1296
995
1189
1765
2402
2747
2606
2078
1398
971
1034
1511
2186
2672
2693
2294
1627
1077
961
1309
1962
2545
2748
2466
1846
1214
943
1158
1753
2403
2750
2605
2082
1418
1006
1075
1558
2230
2717
2752
2381
1794
1347
1376
1846
2595
3299
3632
3375
2758
2132
1799
1877
2272
2709
2827
2480
1798
1041
607
679
1183
1890
2383
2416
2011
1378
892
839
1232
1908
2480
2643
2352
1735
1134
911
1167
1779
2423
2738
2559
2031
1364
971
1073
1582
2254
2702
2677
2233
1572
1067
1009
1406
2077
2639
2779
2461
1828
1217
993
1257
1863
2493
2800
2620
2064
1403
1039
1154
1678
2352
2791
2758
2309
1648
1143
1099
1506
2178
2727
2863
2541
1922
1344
1155
1421
2031
2663
2955
2766
2218
1575
1221
1350
1881
2549
2980
2919
2442
1777
1297
1280
1682
2332
2868
2979
2631
1984
1392
1198
1466
2077
2687
2939
2714
2147
1481
1135
1273
1805
2445
2839
2754
2267
1584
1098
1088
1503
2176
2704
2788
2416
1750
1154
974
1264
1895
2509
2752
2512
1923
1277
957
1111
1674
2337
2725
2624
2135
1450
976
991
1445
2129
2647
2709
2331
1648
1095
955
1287
1920
2517
2754
2512
1914
1265
959
1136
1707
2367
2745
2631
2123
1445
998
1031
1485
2155
2653
2704
2311
1643
1082
951
1299
1953
2555
2769
2501
1873
1250
960
1162
1723
2387
2756
2635
2113
1425
989
1034
1494
2183
2685
2707
2289
1623
1079
963
1329
1979
2559
2763
2480
1858
1222
943
1155
1749
2416
2775
2638
2103
1430
999
1063
1535
2234
2736
2765
2351
1678
1136
1053
1430
2096
2689
2880
2583
1941
1283
998
1209
1794
2433
2765
2598
2045
1366
950
1039
1535
2227
2709
2714
2288
1600
1050
944
1311
1987
2585
2768
2471
1830
1199
934
1179
1794
2448
2771
2613
2063
1379
980
1079
1591
2284
2778
2816
2431
1819
1377
1401
1893
2679
3408
3740
3408
2726
2039
1687
1772
2177
2619
2731
2374
1687
944
551
669
1227
1957
2448
2447
2010
1349
851
816
1231
1929
2517
2677
2364
1723
1114
900
1168
1799
2446
2749
2559
2003
1335
954
1076
1613
2309
2770
2733
2259
1571
1046
991
1402
2099
2675
2802
2459
1798
1183
975
1252
1893
2544
2832
2628
2043
1372
1013
1165
1726
2411
2853
2815
2335
1639
1136
1122
1559
2257
2831
2944
2559
1908
1297
1124
1431
2082
2731
3015
2800
2206
1535
1186
1345
1920
2613
3035
2959
2449
1750
1255
1255
1691
2371
2923
3017
2639
1957
1341
1155
1455
2099
2739
3005
2765
2153
1472
1123
1264
1824
2494
2902
2802
2286
1584
1088
1086
1527
2219
2750
2823
2427
1739
1139
957
1271
1921
2545
2796
2545
1936
1263
929
1111
1688
2368
2778
2679
2159
1450
976
993
1456
2151
2677
2745
2355
1665
1083
929
1264
1923
2544
2773
2511
1903
1222
907
1099
1701
2395
2800
2693
2156
1434
962
989
1470
2174
2694
2750
2340
1650
1071
938
1295
1949
2587
2806
2521
1884
1225
934
1152
1751
2433
2811
2683
2143
1435
988
1039
1504
2208
2713
2752
2329
1629
1053
933
1299
1982
2597
2809
2518
1886
1232
950
1181
1802
2469
2827
2679
2132
1437
1037
1108
1622
2325
2826
2842
2421
1729
1153
1039
1394
2058
2640
2807
2493
1815
1177
912
1151
1775
2447
2789
2627
2064
1363
943
1015
1520
2228
2715
2718
2276
1584
1023
946
1344
2042
2643
2818
2497
1835
1189
938
1185
1803
2464
2800
2640
2096
1441
1103
1278
1904
2713
3327
3435
3035
2402
1918
1856
2203
2781
3228
3184
2634
1770
951
594
781
1378
2091
2448
2309
1759
1089
716
843
1399
2127
2619
2609
2160
1471
956
911
1322
2021
2617
2774
2449
1787
1155
927
1201
1840
2487
2795
2601
2017
1334
960
1094
1646
2338
2785
2733
2251
1555
1041
1015
1453
2155
2721
2842
2490
1834
1223
1020
1305
1947
2599
2874
2655
2074
1393
1050
1203
1776
2481
2937
2875
2371
1681
1168
1153
1601
2307
2878
2991
2633
1965
1355
1170
1479
2147
2797
3071
2835
2225
1558
1215
1378
1947
2637
3045
2951
2426
1727
1232
1219
1663
2355
2909
2995
2615
1926
1315
1135
1443
2084
2689
2927
2670
2035
1356
1031
1197
1750
2439
2836
2736
2215
1499
1015
1019
1467
2160
2695
2766
2371
1678
1074
912
1233
1898
2518
2769
2524
1906
1235
906
1095
1682
2362
2754
2647
2118
1417
946
983
1476
2188
2714
2766
2355
1660
1069
903
1244
1920
2547
2781
2512
1875
1203
893
1088
1684
2381
2779
2669
2152
1431
972
1007
1485
2176
2685
2720
2304
1613
1041
922
1290
1968
2583
2773
2481
1857
1209
914
1133
1742
2418
2778
2640
2096
1398
963
1017
1535
2251
2771
2798
2364
1664
1088
978
1363
2058
2666
2854
2555
1907
1254
961
1175
1777
2432
2781
2625
2066
1353
914
994
1507
2218
2704
2705
2259
1571
1012
917
1298
1984
2592
2768
2455
1803
1156
896
1142
1771
2439
2779
2617
2065
1346
927
1018
1555
2259
2739
2730
2289
1623
1138
1127
1616
2399
3121
3425
3190
2605
2017
1781
1968
2470
2982
3126
2737
1981
1123
601
639
1140
1856
2352
2367
1929
1247
735
706
1139
1849
2468
2651
2346
1695
1072
854
1139
1794
2465
2793
2610
2029
1334
943
1070
1601
2307
2759
2720
2251
1556
1043
1005
1430
2134
2710
2847
2505
1840
1218
1005
1294
1938
2593
2880
2680
2085
1392
1017
1171
1735
2432
2886
2833
2351
1649
1152
1137
1583
2275
2841
2962
2607
1931
1326
1148
1462
2133
2799
3097
2874
2267
1584
1229
1379
1947
2651
3097
3024
2513
1811
1310
1296
1746
2437
2995
3086
2693
2006
1393
1212
1520
2177
2823
3102
2850
2225
1535
1187
1341
1909
2559
2974
2878
2351
1639
1136
1135
1596
2291
2832
2895
2483
1786
1171
997
1311
1973
2611
2845
2587
1953
1277
944
1129
1725
2413
2815
2720
2194
1481
1003
1038
1515
2207
2738
2797
2390
1712
1127
979
1325
1993
2624
2852
2586
1962
1290
962
1152
1749
2434
2832
2714
2187
1475
1009
1051
1535
2256
2781
2825
2415
1720
1139
1010
1371
2035
2647
2863
2559
1936
1270
975
1189
1782
2487
2871
2738
2195
1488
1038
1090
1595
2300
2817
2847
2416
1727
1153
1042
1409
2101
2710
2903
2610
1968
1314
1040
1274
1901
2559
2911
2752
2188
1476
1035
1086
1581
2269
2759
2774
2336
1648
1092
997
1370
2045
2647
2821
2508
1856
1206
947
1187
1821
2494
2836
2672
2099
1402
976
1058
1580
2278
2763
2759
2320
1637
1091
1014
1424
2140
2791
3030
2785
2222
1685
1535
1903
2608
3367
3818
3518
2777
1928
1328
1223
1558
2103
2455
2367
1884
1198
693
672
1108
1838
2439
2607
2285
1629
1001
784
1072
1741
2428
2758
2590
2007
1324
935
1070
1614
2319
2787
2758
2288
1584
1051
999
1453
2135
2729
2859
2503
1831
1205
985
1264
1913
2585
2893
2688
2095
1396
1023
1173
1741
2442
2893
2841
2356
1654
1131
1095
1523
2229
2799
2919
2555
1891
1270
1089
1403
2072
2738
3046
2833
2240
1563
1187
1334
1909
2622
3067
3008
2498
1793
1279
1263
1709
2407
2978
3089
2709
2025
1409
1219
1520
2175
2829
3110
2864
2249
1569
1200
1347
1904
2585
2990
2887
2354
1634
1131
1123
1575
2259
2800
2858
2462
1776
1168
988
1307
1965
2608
2863
2609
1971
1287
939
1109
1696
2387
2800
2699
2171
1460
983
1006
1462
2164
2688
2750
2352
1677
1088
925
1253
1927
2559
2800
2541
1907
1231
905
1105
1699
2384
2768
2659
2127
1418
953
987
1485
2193
2716
2762
2361
1677
1088
945
1293
1968
2608
2832
2549
1904
1232
924
1121
1744
2432
2819
2692
2151
1443
974
1011
1499
2209
2729
2764
2338
1657
1088
991
1360
2037
2645
2841
2551
1921
1265
975
1184
1778
2476
2853
2704
2152
1441
992
1033
1531
2229
2727
2739
2290
1584
1014
916
1297
1979
2587
2768
2450
1803
1153
887
1121
1758
2419
2766
2586
2009
1314
896
995
1522
2239
2736
2736
2288
1584
1018
935
1331
2027
2636
2837
2559
1959
1391
1235
1597
2309
3089
3565
3445
2879
2190
1728
1721
2083
2595
2883
2683
2079
1258
667
580
976
1708
2326
2500
2192
1531
894
678
956
1616
2309
2641
2480
1911
1232
844
970
1491
2211
2673
2652
2189
1488
962
912
1328
2037
2637
2781
2447
1779
1150
919
1197
1839
2493
2791
2587
1999
1322
942
1072
1619
2318
2771
2736
2256
1565
1051
1015
1442
2139
2704
2819
2461
1796
1181
980
1282
1939
2608
2903
2694
2102
1422
1063
1202
1769
2474
2926
2871
2390
1703
1200
1183
1627
2320
2879
2977
2610
1936
1333
1143
1435
2080
2711
2993
2752
2135
1457
1105
1271
1832
2516
2945
2862
2342
1623
1120
1104
1532
2224
2759
2849
2467
1808
1170
987
1294
1936
2559
2825
2595
1983
1311
965
1132
1687
2375
2783
2688
2178
1475
1007
1007
1457
2148
2681
2752
2361
1686
1102
944
1267
1908
2513
2752
2509
1907
1264
957
1136
1718
2374
2755
2670
2170
1491
1043
1072
1525
2195
2701
2752
2363
1693
1134
989
1319
1977
2598
2829
2559
1969
1323
1008
1195
1775
2438
2815
2719
2218
1535
1090
1130
1602
2283
2775
2807
2398
1730
1174
1052
1393
2043
2640
2843
2590
1984
1360
1088
1280
1849
2491
2853
2735
2211
1535
1117
1169
1648
2321
2802
2832
2416
1744
1188
1074
1419
2067
2643
2832
2550
1932
1302
1040
1264
1857
2496
2827
2672
2130
1456
1046
1121
1627
2306
2786
2795
2379
1711
1177
1075
1427
2087
2658
2833
2545
1936
1327
1085
1338
1983
2697
3126
3079
2639
2091
1792
1968
2533
3265
3847
3735
3055
2192
1455
1170
1367
1898
2391
2527
2235
1612
998
778
1023
1650
2300
2635
2485
1959
1305
939
1059
1584
2274
2709
2695
2249
1586
1087
1023
1438
2096
2666
2818
2499
1857
1234
1008
1263
1873
2509
2801
2624
2074
1405
1057
1169
1704
2384
2831
2797
2345
1667
1152
1104
1504
2179
2749
2886
2559
1923
1321
1104
1374
1991
2635
2934
2758
2171
1506
1137
1258
1786
2464
2911
2880
2414
1764
1264
1237
1653
2320
2871
2999
2663
2010
1412
1215
1503
2135
2768
3059
2844
2250
1585
1219
1346
1882
2544
2963
2905
2426
1745
1254
1222
1618
2294
2825
2926
2559
1895
1280
1074
1347
1981
2606
2865
2646
2061
1389
1049
1191
1733
2399
2807
2731
2251
1564
1085
1072
1491
2165
2688
2755
2376
1709
1125
958
1271
1911
2530
2787
2553
1956
1295
975
1155
1726
2390
2786
2692
2190
1513
1041
1053
1502
2179
2701
2768
2395
1734
1159
1001
1308
1958
2587
2831
2597
1991
1325
994
1157
1728
2399
2800
2707
2206
1520
1063
1088
1553
2245
2770
2837
2448
1773
1180
1023
1347
2015
2642
2881
2624
2000
1343
1034
1217
1806
2474
2853
2751
2232
1557
1109
1143
1614
2300
2813
2861
2454
1778
1208
1075
1418
2090
2691
2903
2640
2014
1359
1041
1216
1787
2454
2826
2704
2173
1472
1040
1091
1581
2254
2753
2786
2373
1706
1141
1015
1367
2038
2647
2849
2559
1921
1267
979
1200
1799
2461
2819
2683
2132
1443
1021
1113
1643
2371
2916
2992
2640
2055
1615
1626
2096
2854
3599
3901
3460
2674
1899
1442
1457
1872
2377
2611
2402
1839
1149
752
848
1374
2099
2559
2587
2160
1487
958
895
1310
1984
2589
2762
2453
1807
1170
931
1187
1815
2478
2800
2647
2095
1402
989
1083
1606
2303
2772
2755
2299
1615
1090
1022
1423
2112
2695
2835
2511
1847
1218
987
1255
1899
2557
2871
2682
2109
1423
1042
1152
1697
2394
2863
2837
2367
1648
1141
1091
1495
2190
2765
2911
2559
1923
1315
1096
1367
2013
2672
2979
2795
2214
1532
1152
1270
1815
2501
2950
2907
2432
1743
1230
1182
1600
2278
2829
2941
2587
1936
1312
1114
1397
2035
2676
2960
2738
2134
1446
1079
1200
1729
2393
2815
2750
2255
1570
1074
1053
1472
2157
2699
2794
2425
1763
1161
967
1268
1920
2544
2803
2559
1950
1260
903
1062
1635
2320
2739
2672
2182
1500
1023
1018
1456
2139
2672
2752
2379
1711
1130
964
1278
1910
2533
2768
2539
1938
1281
963
1147
1714
2381
2773
2683
2183
1498
1045
1071
1520
2176
2687
2735
2347
1694
1137
999
1333
1991
2605
2813
2542
1921
1266
960
1151
1741
2397
2768
2663
2159
1476
1031
1070
1533
2221
2723
2768
2374
1712
1151
1020
1354
1994
2583
2783
2518
1929
1292
1007
1207
1787
2443
2801
2683
2161
1493
1057
1119
1616
2309
2800
2822
2409
1734
1193
1093
1454
2099
2669
2842
2545
1920
1281
1007
1222
1829
2480
