1748
1943
2205
2378
2438
2449
2448
2493
2616
2800
2978
3051
2943
2673
2318
1967
1740
1682
1758
1798
1776
1690
1565
1456
1446
1535
1717
1904
1982
1926
1813
1687
1630
1669
1799
1971
2073
2044
1933
1762
1657
1665
1776
1940
2088
2110
2017
1891
1771
1733
1803
1951
2112
2172
2112
1984
1856
1810
1879
2034
2220
2314
2274
2160
2031
1936
1941
2047
2226
2367
2395
2307
2161
2045
2005
2076
2219
2379
2449
2379
2234
2080
1998
2021
2135
2295
2387
2350
2220
2066
1933
1910
1990
2143
2263
2278
2167
2003
1853
1798
1856
1993
2164
2237
2176
2029
1867
1759
1773
1893
2075
2192
2162
2037
1884
1776
1775
1863
2036
2177
2197
2111
1958
1820
1773
1831
1975
2139
2187
2103
1947
1787
1703
1737
1878
2059
2182
2166
2039
1886
1769
1756
1851
2021
2174
2186
2095
1936
1787
1726
1776
1932
2103
2196
2151
2015
1851
1774
1791
1881
2012
2137
2112
1986
1817
1691
1671
1761
1930
2079
2109
2000
1838
1694
1643
1712
1872
2043
2113
2055
1911
1758
1680
1703
1825
1999
2116
2089
1955
1778
1643
1600
1680
1843
1997
2067
2000
1862
1792
1821
1969
2224
2507
2709
2743
2689
2559
2479
2454
2493
2519
2434
2203
1890
1600
1398
1328
1408
1613
1794
1861
1814
1708
1611
1600
1683
1856
2027
2123
2079
1946
1805
1712
1716
1830
2015
2135
2112
1984
1831
1732
1735
1838
2019
2188
2224
2144
1989
1841
1783
1845
2009
2189
2288
2234
2107
1957
1898
1929
2064
2240
2366
2357
2247
2093
1973
1971
2083
2269
2443
2487
2384
2223
2075
2011
2065
2210
2375
2448
2397
2256
2105
2002
2001
2116
2284
2402
2386
2259
2078
1933
1875
1930
2078
2219
2254
2161
1997
1840
1787
1840
1997
2171
2240
2174
2027
1871
1774
1792
1926
2112
2212
2175
2046
1890
1783
1782
1874
2039
2203
2230
2138
1985
1841
1780
1823
1959
2125
2208
2159
2023
1873
1773
1779
1902
2097
2235
2226
2110
1929
1797
1775
1859
2023
2183
2223
2129
1968
1813
1750
1811
1975
2163
2258
2183
2026
1834
1715
1716
1821
1986
2114
2109
1977
1809
1680
1649
1729
1904
2065
2106
2025
1871
1733
1680
1726
1873
2054
2150
2108
1968
1808
1698
1697
1786
1957
2064
2037
1911
1777
1657
1647
1755
1970
2205
2352
2384
2350
2301
2323
2437
2624
2814
2873
2746
2486
2160
1846
1665
1650
1756
1837
1821
1712
1583
1487
1485
1591
1791
1985
2064
1998
1858
1725
1661
1703
1856
2031
2133
2096
1959
1813
1727
1729
1826
1985
2128
2134
2042
1893
1775
1747
1831
2002
2178
2228
2153
2010
1872
1833
1890
2038
2226
2335
2302
2166
1990
1879
1893
2025
2224
2383
2395
2283
2119
1983
1936
2014
2193
2372
2434
2359
2213
2059
1971
2000
2158
2310
2395
2352
2211
2037
1917
1903
2015
2190
2317
2295
2163
1989
1847
1803
1866
2018
2177
2224
2148
2007
1871
1807
1831
1959
2135
2231
2190
2063
1899
1796
1797
1901
2083
2234
2254
2140
1975
1840
1792
1846
1999
2165
2233
2155
2007
1841
1759
1805
1945
2121
2231
2218
2112
1955
1826
1801
1887
2060
2197
2213
2102
1947
1819
1783
1843
1992
2167
2235
2155
1984
1813
1719
1747
1874
2039
2148
2110
1971
1810
1698
1679
1773
1959
2107
2107
2000
1855
1703
1665
1743
1909
2067
2122
2045
1904
1737
1650
1694
1845
2022
2114
2041
1890
1706
1569
1531
1633
1837
2015
2085
2061
1994
1975
2076
2279
2559
2832
2985
2960
2814
2631
2474
2365
2311
2304
2240
2064
1831
1600
1442
1424
1531
1728
1902
1955
1893
1766
1634
1590
1660
1817
2001
2074
2000
1867
1718
1646
1682
1819
1999
2123
2101
1984
1828
1706
1707
1818
2000
2164
2187
2079
1918
1772
1730
1822
2000
2198
2285
2209
2062
1906
1839
1873
2003
2186
2309
2304
2211
2077
1983
1982
2064
2224
2365
2391
2301
2142
1991
1936
2003
2167
2327
2389
2309
2159
1993
1902
1911
2032
2213
2331
2303
2175
1989
1849
1822
1919
2106
2245
2257
2150
1984
1854
1803
1855
2000
2156
2203
2128
1984
1828
1739
1767
1898
2083
2206
2181
2063
1894
1776
1774
1871
2043
2189
2201
2093
1926
1791
1728
1774
1920
2098
2191
2141
2003
1851
1776
1811
1943
2128
2251
2227
2096
1920
1775
1757
1871
2064
2218
2242
2138
1970
1823
1775
1830
1957
2103
2159
2086
1933
1766
1674
1684
1808
1985
2101
2080
1958
1792
1665
1637
1714
1897
2059
2097
2000
1849
1709
1654
1701
1853
2032
2128
2069
1909
1721
1594
1581
1678
1839
1943
1914
1803
1667
1604
1665
1856
2137
2399
2558
2611
2614
2603
2643
2754
2935
3098
3088
2842
2467
2074
1781
1664
1702
1809
1889
1865
1740
1584
1483
1499
1621
1813
1981
2027
1943
1791
1631
1603
1672
1840
2010
2096
2026
1879
1717
1611
1622
1750
1940
2074
2074
1957
1809
1696
1693
1798
1982
2160
2205
2128
1975
1835
1790
1871
2033
2199
2285
2240
2112
1962
1859
1889
2035
2247
2385
2389
2269
2105
1985
1973
2069
2225
2369
2400
2304
2154
2001
1930
1967
2102
2265
2341
2295
2170
2028
1919
1910
2001
2167
2286
2269
2150
1975
1850
1826
1903
2047
2192
2224
2137
1990
1850
1794
1831
1952
2127
2202
2134
1981
1818
1727
1746
1854
2011
2142
2145
2045
1897
1764
1725
1791
1947
2128
2193
2141
2003
1852
1765
1783
1911
2096
2197
2169
2037
1877
1776
1779
1894
2063
2183
2174
2077
1949
1810
1749
1806
1975
2156
2207
2119
1961
1782
1680
1685
1815
1979
2080
2034
1910
1753
1631
1617
1720
1895
2031
2035
1938
1791
1663
1613
1673
1830
1984
2031
1942
1803
1656
1582
1618
1746
1904
1984
1905
1739
1573
1453
1438
1552
1758
1961
2043
2019
1983
1995
2127
2375
2723
3036
3184
3136
2967
2747
2526
2358
2270
2240
2157
1983
1753
1531
1413
1418
1525
1728
1890
1904
1797
1643
1525
1511
1616
1789
1951
2021
1937
1778
1619
1535
1593
1738
1921
2035
1997
1853
1680
1585
1600
1727
1921
2065
2075
1962
1838
1719
1693
1775
1920
2112
2180
2118
1983
1849
1783
1841
2000
2184
2292
2270
2146
1994
1885
1891
1996
2176
2309
2315
2206
2038
1904
1855
1920
2090
2256
2314
2240
2078
1922
1833
1851
1975
2145
2250
2204
2059
1883
1779
1799
1899
2067
2206
2209
2094
1905
1773
1709
1763
1920
2085
2142
2046
1875
1737
1689
1739
1881
2068
2178
2143
1981
1778
1643
1637
1734
1919
2078
2100
2006
1870
1750
1707
1766
1910
2100
2190
2113
1968
1837
1774
1815
1945
2112
2221
2174
2019
1854
1749
1743
1827
1987
2135
2160
2064
1878
1722
1670
1747
1933
2133
2223
2151
1961
1759
1663
1692
1805
1966
2066
2032
1920
1758
1635
1631
1721
1878
2007
2015
1914
1766
1661
1630
1694
1851
2012
2075
1991
1840
1648
1576
1600
1706
1872
1969
1925
1791
1658
1584
1648
1836
2119
2416
2559
2559
2495
2425
2442
2541
2691
2816
2797
2559
2193
1792
1519
1437
1490
1634
1743
1733
1635
1520
1454
1484
1631
1847
2019
2039
1920
1773
1657
1623
1667
1813
1981
2047
1984
1847
1707
1648
1701
1840
2014
2138
2128
2000
1856
1765
1755
1841
2015
2163
2192
2109
1968
1840
1808
1882
2060
2242
2331
2283
2150
1980
1890
1922
2047
2226
2368
2363
2239
2082
1953
1927
2006
2187
2342
2369
2287
2142
1999
1939
1996
2143
2284
2337
2257
2111
1933
1824
1829
1939
2126
2261
2254
2112
1936
1804
1776
1879
2043
2161
2155
2041
1875
1724
1665
1722
1873
2066
2169
2118
1973
1810
1702
1707
1831
2015
2144
2128
2001
1833
1714
1700
1779
1934
2089
2127
2015
1847
1695
1648
1699
1847
2030
2112
2064
1914
1773
1703
1728
1837
1999
2117
2103
1983
1815
1679
1646
1717
1901
2080
2118
2023
1871
1715
1647
1691
1831
1984
2043
1967
1808
1655
1571
1589
1710
1885
2000
2002
1898
1729
1607
1600
1701
1872
2023
2052
1933
1758
1604
1535
1591
1747
1916
2016
1945
1793
1611
1472
1472
1616
1840
2030
2071
2018
1937
1904
1953
2109
2349
2592
2708
2670
2502
2309
2175
2096
2075
2071
1984
1795
1574
1357
1234
1255
1433
1660
1855
1892
1826
1703
1586
1559
1644
1818
2013
2062
1969
1812
1664
1609
1664
1817
1995
2102
2070
1947
1796
1679
1662
1767
1968
2140
2151
2035
1873
1741
1718
1819
2001
2182
2240
2160
2015
1871
1822
1877
2029
2207
2320
2297
2176
2021
1911
1933
2077
2280
2423
2416
2274
2102
1969
1937
2017
2181
2337
2365
2269
2103
1936
1856
1891
2021
2192
2283
2224
2070
1895
1781
1763
1867
2053
2191
2187
2064
1873
1721
1669
1722
1893
2077
2138
2069
1917
1759
1693
1733
1870
2045
2148
2114
1991
1829
1697
1686
1802
1991
2150
2149
2021
1857
1735
1702
1775
1958
2149
2211
2123
1939
1772
1683
1743
1891
2074
2178
2143
2033
1879
1743
1711
1799
1977
2123
2126
2022
1891
1770
1735
1792
1935
2089
2129
2039
1879
1709
1606
1631
1745
1915
2031
2000
1878
1729
1620
1626
1745
1944
2109
2111
1989
1810
1661
1619
1678
1822
1981
2037
1973
1839
1681
1579
1603
1746
1931
2027
1982
1856
1707
1612
1648
1815
2092
2311
2415
2399
2328
2279
2293
2379
2514
2640
2625
2442
2140
1786
1521
1425
1474
1631
1746
1744
1647
1508
1414
1450
1603
1814
1983
2009
1918
1781
1663
1620
1680
1834
2023
2095
2007
1861
1707
1614
1646
1776
1959
2089
2069
1942
1788
1686
1690
1798
1967
2112
2130
2032
1895
1776
1758
1835
2001
2189
2258
2207
2081
1920
1838
1873
2021
2191
2304
2286
2176
2016
1900
1893
2004
2192
2320
2334
2241
2095
1942
1878
1915
2039
2203
2268
2194
2027
1867
1777
1807
1936
2139
2267
2224
2067
1870
1737
1711
1797
1963
2107
2128
2025
1871
1742
1679
1732
1883
2059
2159
2096
1945
1767
1674
1695
1811
1984
2109
2074
1954
1794
1689
1683
1785
1969
2131
2160
2065
1911
1767
1701
1744
1891
2078
2176
2160
2034
1881
1723
1680
1763
1920
2043
2045
1938
1755
1638
1605
1687
1866
2007
2045
1952
1811
1669
1602
1635
1767
1919
1984
1923
1771
1600
1498
1516
1645
1834
1970
1958
1838
1667
1535
1527
1601
1745
1897
1948
1885
1742
1600
1533
1570
1689
1864
1940
1862
1695
1520
1417
1427
1559
1749
1925
1980
1950
1898
1900
2010
2225
2496
2755
2867
2813
2620
2381
2192
2041
1979
1978
1936
1784
1573
1389
1293
1313
1436
1648
1795
1817
1735
1588
1462
1435
1535
1735
1904
1952
1883
1727
1567
1494
1535
1708
1882
1953
1873
1755
1629
1535
1566
1683
1882
2027
2026
1904
1740
1629
1605
1681
1867
2046
2103
2027
1889
1751
1704
1782
1950
2135
2226
2183
2063
1899
1792
1799
1927
2124
2242
2224
2096
1936
1811
1791
1889
2046
2178
2206
2102
1936
1785
1712
1759
1911
2101
2201
2144
2004
1823
1701
1690
1793
1957
2074
2059
1936
1776
1653
1634
1725
1901
2064
2096
2001
1849
1680
1618
1669
1807
1984
2072
2019
1882
1733
1639
1653
1761
1935
2086
2095
1982
1795
1642
1595
1671
1842
2007
2055
1977
1840
1701
1634
1677
1829
2019
2130
2085
1933
1772
1645
1615
1717
1891
2037
2065
1959
1808
1680
1648
1723
1901
2044
2075
1970
1801
1630
1535
1581
1712
1883
1981
1936
1802
1623
1502
1497
1631
1846
1999
1989
1872
1697
1531
1470
1535
1721
1905
1969
1900
1741
1575
1458
1469
1593
1750
1831
1787
1669
1520
1472
1569
1771
2064
2322
2467
2515
2512
2517
2610
2754
2926
3054
2986
2715
2333
1941
1663
1535
1598
1712
1792
1733
1600
1446
1367
1409
1535
1755
1915
1933
1827
1665
1529
1489
1535
1706
1867
1922
1861
1743
1600
1527
1584
1728
1908
2031
1963
1812
1649
1535
1568
1693
1887
2032
2047
1950
1796
1669
1650
1737
1906
2102
2178
2121
1991
1856
1789
1825
1969
2161
2284
2267
2143
1966
1853
1841
1936
2119
2255
2256
2153
1989
1839
1793
1859
2022
2195
2241
2155
2003
1857
1773
1791
1907
2083
2178
2138
2011
1859
1747
1744
1827
1979
2107
2098
1975
1813
1664
1637
1707
1871
2032
2105
2031
1887
1732
1651
1666
1792
1977
2115
2090
1954
1791
1669
1661
1775
1961
2119
2150
2042
1869
1713
1659
1728
1901
2094
2162
2076
1907
1745
1669
1709
1847
2035
2169
2133
1987
1808
1714
1712
1817
2000
2154
2172
2054
1874
1721
1661
1715
1872
2038
2087
1983
1809
1637
1535
1581
1710
1883
1982
1952
1834
1697
1611
1610
1697
1867
2000
2026
1943
1786
1630
1581
1643
1790
1955
2011
1926
1757
1590
1454
1429
1527
1707
1837
1840
1808
1744
1728
1850
2119
2465
2771
2941
2991
2939
2864
2823
2822
2848
2805
2608
2293
1968
1667
1472
1431
1527
1710
1838
1825
1734
1603
1500
1488
1587
1759
1927
1969
1878
1729
1595
1557
1616
1766
1934
2005
1954
1811
1659
1567
1585
1727
1925
2071
2046
1909
1749
1641
1637
1779
2009
2195
2222
2114
1966
1835
1790
1863
2032
2222
2322
2270
2127
1959
1863
1884
2015
2213
2347
2339
2224
2068
1943
1922
2000
2172
2320
2352
2256
2096
1951
1890
1919
2071
2234
2308
2247
2110
1939
1842
1865
1968
2135
2266
2255
2119
1936
1799
1758
1840
2001
2159
2187
2082
1909
1762
1690
1734
1877
2062
2144
2096
1968
1808
1712
1729
1854
2046
2177
2166
2053
1885
1749
1725
1811
1987
2147
2183
2096
1936
1778
1705
1743
1890
2074
2176
2139
2007
1860
1776
1782
1892
2064
2180
2174
2065
1904
1789
1763
1841
2027
2191
2221
2115
1920
1739
1650
1681
1821
1999
2102
2039
1887
1714
1616
1639
1762
1942
2085
2082
1969
1783
1664
1650
1728
1906
2087
2146
2064
1904
1744
1648
1654
1775
1933
1999
1918
1758
1618
1532
1557
1687
1903
2099
2175
2165
2128
2119
2210
2403
2669
2909
3011
2938
2738
2487
2257
2081
1983
1959
1906
1775
1584
1413
1328
1358
1514
1743
1917
1966
1895
1776
1662
1641
1713
1872
2043
2110
2031
1894
1735
1649
1677
1837
2018
2143
2109
1967
1803
1694
1707
1832
2032
2191
2210
2113
1959
1829
1789
1858
2035
2221
2294
2251
2134
1991
1924
1962
2111
2293
2415
2397
2286
2127
2015
2023
2139
2315
2453
2439
2333
2178
2064
2033
2112
2256
2396
2433
2352
2192
2044
1955
1965
2096
2274
2366
2307
2160
1985
1852
1824
1911
2071
2195
2192
2069
1915
1777
1753
1833
2006
2188
2257
2181
2030
1891
1824
1831
1926
2083
2192
2167
2058
1890
1773
1771
1879
2059
2196
2214
2109
1953
1808
1760
1823
1991
2161
2220
2139
1987
1829
1744
1779
1919
2112
2236
2211
2090
1919
1791
1776
1887
2071
2205
2223
2094
1910
1757
1724
1798
1968
2145
2202
2126
1968
1808
1729
1744
1835
1987
2105
2070
1936
1772
1648
1639
1743
1929
2083
2115
2032
1873
1728
1666
1727
1889
2068
2148
2073
1899
1719
1616
1632
1755
1917
2005
1967
1853
1717
1632
1679
1846
2111
2340
2439
2427
2368
2323
2351
2475
2672
2843
2869
2688
2386
2029
1735
1600
1633
1745
1811
1776
1658
1525
1425
1446
1584
1813
2000
2059
1987
1842
1703
1650
1712
1883
2060
2121
2056
1903
1741
1661
1703
1840
1998
2113
2111
2023
1878
1758
1759
1872
2061
2213
2256
2172
2007
1859
1809
1877
2031
2226
2314
2256
2119
1967
1905
1947
2091
2293
2427
2395
2256
2091
1965
1957
2064
2243
2398
2427
2332
2171
2015
1954
2011
2175
2351
2429
2353
2188
1994
1887
1901
2015
2196
2307
2293
2165
1978
1829
1779
1854
2015
2189
2214
2123
1969
1835
1775
1838
1981
2160
2256
2214
2067
1903
1814
1845
1962
2111
2207
2187
2067
1905
1783
1754
1844
2023
2179
2210
2119
1965
1823
1745
1805
1969
2151
2239
2175
2042
1894
1811
1829
1934
2097
2217
2214
2111
1954
1825
1802
1873
2032
2183
2213
2115
1957
1816
1758
1807
1957
2121
2175
2096
1949
1786
1681
1699
1824
2001
2123
2096
1967
1808
1702
1691
1775
1948
2097
2130
2032
1872
1728
1660
1711
1856
2028
2117
2080
1941
1771
1629
1606
1706
1868
1991
1995
1904
1795
1751
1826
2018
2303
2579
2738
2765
2705
2613
2559
2602
2675
2713
2607
2332
1999
1687
1503
1459
1535
1713
1853
1872
1797
1679
1584
1575
1666
1856
2038
2105
2020
1881
1747
1687
1739
1879
2063
2142
2081
1942
1807
1689
1695
1815
2003
2134
2133
2025
1867
1749
1744
1830
2007
2176
2229
2159
2009
1871
1822
1890
2061
2253
2364
2332
2205
2032
1919
1925
2053
2245
2391
2395
2275
2121
1986
1955
2019
2192
2365
2417
2334
2175
2021
1978
2041
2181
2343
2417
2346
2167
1961
1831
1837
1958
2123
2234
2219
2109
1965
1846
1811
1875
2044
2205
2240
2150
1986
1837
1760
1795
1946
2147
2256
2219
2096
1937
1822
1823
1923
2091
2219
2213
2106
1952
1815
1773
1851
2017
2183
2240
2159
1995
1846
1778
1834
1968
2155
2255
2222
2098
1933
1808
1791
1881
2075
2226
2261
2149
1949
1787
1744
1839
1999
2177
2239
2165
2014
1854
1765
1787
1916
2077
2176
2113
1968
1808
1712
1717
1811
1983
2114
2119
2015
1856
1728
1680
1739
1906
2089
2138
2047
1902
1749
1677
1706
1825
1993
2091
2013
1843
1648
1515
1499
1616
1808
1979
2047
2029
1964
1920
1986
2189
2517
2865
3088
3122
3022
2883
2767
2688
2651
2606
2481
2253
1984
1731
1552
1478
1535
1728
1878
1904
1817
1685
1591
1579
1649
1809
1987
2077
1985
1838
1669
1584
1627
1789
1984
2112
2082
1951
1793
1693
1675
1762
1936
2084
2109
2014
1889
1790
1776
1839
1987
2151
2224
2160
2009
1854
1789
1831
1978
2176
2317
2314
2192
2032
1936
1950
2067
2259
2411
2421
2318
2152
2005
1959
2023
2176
2338
2385
2303
2160
1998
1919
1941
2081
2256
2358
2320
2182
2003
1881
1865
1967
2122
2265
2297
2205
2019
1858
1791
1840
1982
2147
2225
2162
2019
1858
1765
1789
1907
2101
2208
2177
2055
1907
1801
1785
1867
2058
2194
2208
2114
1939
1791
1731
1778
1936
2114
2194
2134
1991
1842
1744
1766
1899
2083
2208
2211
2112
1941
1808
1794
1893
2070
2211
2225
2109
1923
1776
1741
1818
1993
2173
2249
2177
2019
1854
1750
1753
1845
2005
2127
2111
1984
1822
1695
1659
1744
1925
2080
2091
1979
1811
1664
1600
1658
1830
2017
2123
2064
1909
1743
1647
1665
1790
1970
2089
2027
1865
1684
1534
1495
1577
1745
1904
1967
1930
1850
1821
1883
2076
2381
2729
2981
3087
3053
2944
2849
2807
2806
2777
2646
2390
2086
1786
1571
1487
1535
1693
1838
1874
1793
1661
1534
1495
1570
1726
1920
2018
1978
1856
1718
1620
1623
1744
1915
2032
2025
1911
1762
1653
1634
1712
1879
2042
2096
2014
1884
1764
1709
1762
1904
2076
2181
2139
2002
1857
1776
1811
1948
2149
2297
2304
2207
2061
1942
1920
2019
2213
2385
2416
2308
2149
1987
1941
1986
2127
2297
2393
2352
2209
2025
1905
1930
2067
2256
2361
2311
2171
1987
1851
1818
1901
2076
2235
2279
2178
2000
1826
1744
1789
1942
2142
2209
2157
2000
1819
1710
1728
1853
2034
2170
2159
2043
1906
1807
1754
1805
1953
2109
2154
2076
1905
1731
1650
1702
1868
2058
2147
2083
1943
1796
1691
1714
1847
2063
2211
2183
2055
1889
1776
1750
1838
1996
2158
2191
2098
1935
1776
1712
1750
1893
2070
2163
2128
2014
1866
1761
1757
1854
2017
2141
2128
1998
1805
1653
1611
1682
1847
2009
2061
1971
1831
1666
1600
1654
1814
2003
2119
2079
1922
1759
1658
1648
1759
1907
2045
2056
1938
1756
1584
1533
1600
1762
1915
1954
1882
1777
1695
1721
1871
2132
2448
2679
2747
2735
2672
2613
2608
2663
2736
2713
2486
2118
1729
1425
1296
1329
1506
1722
1820
1779
1669
1535
1493
1566
1723
1904
2018
1984
1869
1723
1619
1635
1753
1937
2075
2074
1967
1817
1688
1650
1728
1916
2112
2170
2086
1920
1759
1691
1755
1911
2112
2219
2180
2064
1911
1815
1826
1936
2143
2306
2330
2239
2080
1943
1921
2006
2192
2367
2423
2362
2223
2061
1974
2005
2137
2320
2433
2389
2256
2096
1999
2000
2097
2256
2380
2377
2267
2084
1916
1850
1913
2066
2225
2263
2167
2010
1855
1774
1792
1919
2096
2209
2179
2043
1875
1757
1755
1859
2035
2185
2195
2103
1951
1803
1753
1811
1967
2126
2177
2102
1941
1789
1713
1745
1872
2045
2160
2132
2004
1831
1707
1698
1821
2025
2189
2210
2110
1942
1816
1776
1837
1968
2128
2176
2091
1931
1770
1694
1730
1874
2067
2186
2171
2039
1874
1744
1733
1829
1997
2138
2149
2044
1872
1712
1639
1705
1872
2031
2094
2001
1847
1679
1606
1647
1783
1960
2091
2064
1951
1808
1703
1683
1773
1954
2105
2128
2020
1808
1646
1574
1622
1775
1949
2026
1977
1855
1728
1702
1825
2034
2322
2539
2640
2624
2533
2474
2483
2559
2678
2709
2555
2235
1865
1557
1402
1413
1568
1753
1843
1792
1680
1535
1495
1559
1719
1929
2075
2071
1967
1798
1680
1675
1775
1968
2141
2173
2067
1890
1731
1664
1727
1892
2083
2176
2113
1964
1808
1711
1739
1874
2081
2231
2235
2113
1957
1855
1856
1969
2166
2320
2349
2253
2111
1978
1919
1984
2151
2339
2435
2389
2247
2079
1973
1994
2121
2303
2427
2410
2289
2122
1986
1959
2035
2193
2347
2374
2269
2096
1938
1869
1904
2060
2221
2288
2203
2036
1867
1752
1759
1889
2085
2211
2196
2077
1904
1765
1734
1815
1997
2160
2203
2128
1989
1850
1803
1840
1975
2143
2220
2162
2022
1858
1743
1740
1884
2080
2227
2218
2103
1945
1810
1792
1865
2029
2190
2227
2145
1994
1841
1771
1821
1984
2160
2241
2183
2026
1862
1775
1792
1911
2089
2224
2224
2110
1945
1818
1789
1860
2021
2159
2161
2034
1869
1727
1681
1722
1862
2035
2128
2079
1927
1759
1670
1691
1803
1981
2113
2113
2014
1851
1720
1695
1771
1954
2099
2139
2029
1853
1680
1596
1639
1787
1966
2063
2026
1925
1840
1812
1904
2111
2382
2623
2741
2740
2661
2579
2542
2581
2667
2678
2515
2224
1883
1602
1447
1453
1584
1776
1894
1869
1762
1613
1535
1590
1736
1943
2100
2090
1973
1810
1677
1648
1736
1911
2091
2146
2055
1893
1755
1686
1723
1873
2065
2181
2151
2023
1861
1758
1772
1888
2077
2211
2215
2108
1949
1823
1807
1893
2080
2275
2352
2299
2160
2003
1946
1999
2151
2341
2449
2411
2276
2103
1991
1996
2105
2293
2429
2416
2291
2113
1975
1931
2006
2176
2336
2383
2288
2143
1982
1887
1906
2034
2206
2288
2238
2110
1933
1814
1809
1920
2109
2254
2257
2137
1961
1813
1770
1841
2026
2176
2222
2117
1975
1832
1769
1810
1955
2144
2263
2238
2106
1925
1806
1790
1882
2064
2207
2219
2110
1947
1808
1767
1840
1997
2176
2224
2153
1997
1848
1757
1786
1942
2164
2277
2241
2114
1940
1825
1808
1895
2079
2231
2240
2121
1943
1803
1742
1808
1968
2133
2186
2099
1925
1760
1680
1711
1847
2030
2143
2112
1974
1807
1681
1681
1783
1970
2106
2099
1983
1831
1699
1663
1741
1905
2079
2143
2061
1872
1675
1575
1600
1739
1915
2028
2006
1919
1809
1792
1903
2131
2437
2717
2863
2886
2834
2758
2719
2753
2832
2831
2659
2351
1999
1685
1488
1459
1585
1776
1902
1903
1799
1664
1571
1593
1683
1883
2059
2099
2000
1842
1690
1637
1691
1845
2029
2105
2031
1889
1737
1663
1707
1841
2022
2134
2106
1998
1861
1777
1783
1885
2064
2192
2219
2117
1957
1837
1808
1893
2075
2256
2341
2288
2154
2010
1934
1964
2107
2313
2438
2398
2269
2105
1970
1952
2047
2229
2389
2417
2320
2147
1985
1931
1983
2151
2295
2360
2284
2139
1984
1895
1915
2043
2224
2333
2289
2143
1984
1872
1847
1923
2098
2238
2254
2135
1957
1795
1727
1791
1951
2143
2236
2176
2032
1887
1795
1813
1940
2138
2258
2223
2080
1907
1794
1775
1874
2096
2271
2300
2191
2007
1840
1777
1823
1979
2159
2229
2163
2029
1879
1803
1822
1936
2109
2225
2210
2094
1925
1807
1794
1884
2064
2204
2227
2127
1977
1846
1799
1863
2009
2154
2201
2102
1941
1761
1657
1665
1795
1971
2098
2073
1938
1776
1660
1649
1734
1920
2090
2117
2007
1843
1712
1686
1751
1907
2082
2159
2083
1909
1712
1583
1567
1649
1819
1943
1946
1855
1750
1714
1823
2034
2347
2650
2838
2898
2870
2813
2794
2847
2950
2992
2870
2547
2167
1827
1605
1535
1633
1803
1923
1898
1787
1645
1535
1530
1638
1826
1985
2015
1935
1791
1654
1595
1648
1808
1990
2079
2014
1872
1719
1619
1651
1794
2003
2160
2145
2000
1808
1682
1674
1775
1966
2141
2189
2116
1979
1854
1810
1887
2061
2251
2337
2287
2149
1987
1897
1923
2064
2253
2384
2373
2256
2105
1971
1939
2031
2210
2365
2393
2304
2143
1990
1936
1991
2128
2302
2375
2309
2162
1984
1883
1883
2001
2208
2329
2290
2157
1968
1825
1791
1859
2025
2186
2215
2115
1959
1809
1750
1805
1943
2124
2211
2155
2004
1839
1733
1744
1859
2042
2179
2176
2066
1911
1791
1750
1815
1985
2139
2188
2112
1951
1791
1718
1777
1938
2128
2223
2170
2029
1858
1749
1769
1891
2067
2197
2206
2087
1911
1777
1757
1839
2006
2192
2257
2177
2021
1854
1762
1796
1937
2095
2150
2066
1904
1746
1650
1665
1770
1937
2070
2058
1914
1728
1585
1535
1627
1809
1991
2043
1962
1821
1685
1639
1682
1827
2009
2100
2019
1847
1645
1488
1475
1587
1770
1904
1915
1831
1712
1665
1727
1925
2238
2544
2755
2837
2849
2829
2831
2878
2973
3037
2938
2639
2237
1839
1566
1478
1557
1719
1840
1813
1696
1527
1414
1413
1527
1728
1915
2000
1942
1803
1644
1560
1596
1751
1934
2041
2013
1899
1730
1616
1616
1733
1915
2046
2045
1947
1804
1679
1648
1728
1908
2096
2160
2084
1938
1803
1744
1798
1959
2151
2256
2218
2089
1930
1840
1862
1997
2198
2353
2359
2247
2099
1966
1931
1990
2135
2285
2324
2256
2115
1965
1903
1935
2077
2255
2339
2288
2165
2000
1873
1853
1924
2083
2182
2179
2076
1909
1776
1760
1830
1978
2133
2183
2112
1973
1792
1701
1714
1853
2060
2175
2127
1968
1778
1661
1664
1782
1965
2112
2120
2000
1831
1698
1648
1728
1915
2090
2138
2043
1872
1712
1639
1686
1840
2027
2133
2094
1951
1793
1690
1696
1815
2000
2151
2160
2042
1872
1727
1680
1750
1909
2075
2130
2047
1898
1759
1685
1699
1819
1986
2084
2015
1869
1699
1586
1582
1691
1873
2016
2029
1922
1769
1631
1587
1659
1831
2013
2101
2021
1837
1647
1535
1586
1743
1942
2063
2003
1866
1700
1535
1490
1559
1716
1856
1883
1803
1709
1648
1691
1854
2130
2416
2605
2634
2592
2541
2513
2554
2653
2727
2663
2398
2000
1623
1353
1258
1327
1520
1707
1749
1694
1577
1463
1435
1510
1691
1868
1935
1872
1725
1584
1510
1559
1712
1908
2034
2018
1903
1738
1627
1611
1699
1881
2031
2061
1968
1815
1680
1648
1729
1894
2071
2154
2096
1943
1790
1717
1765
1916
2120
2247
2225
2107
1952
1850
1856
1961
2157
2324
2368
2266
2105
1947
1890
1952
2129
2303
2367
2302
2141
1961
1855
1870
1993
2182
2291
2257
2116
1937
1808
1781
1861
2032
2187
2196
2081
1905
1744
1702
1776
1924
2083
2138
2061
1907
1750
1653
1687
1795
2000
2121
2092
1965
1799
1682
1658
1743
1910
2071
2095
1962
1809
1653
1611
1680
1842
2021
2108
2045
1908
1754
1680
1712
1826
1987
2090
2059
1928
1768
1663
1661
1769
1949
2096
2109
1999
1818
1665
1611
1666
1813
1997
2095
2045
1919
1758
1651
1661
1755
1934
2069
2071
1936
1742
1595
1565
1662
1840
1989
2000
1884
1723
1581
1520
1587
1753
1933
2008
1943
1799
1641
1535
1552
1671
1865
1987
1971
1846
1679
1535
1511
1595
1763
1914
1948
1871
1758
1680
1714
1857
2114
2393
2585
2634
2559
2479
2393
2369
2403
2448
2385
2160
1842
1531
1325
1265
1338
1520
1709
1776
1726
1605
1488
1451
1532
1715
1907
2000
1926
1766
1600
1513
1535
1682
1863
1978
1968
1857
1726
1604
1590
1680
1854
2010
2064
1990
1852
1717
1658
1712
1871
2053
2128
2062
1936
1792
1712
1744
1877
2080
2230
2247
2150
1999
1883
1873
1952
2114
2273
2318
2223
2058
1909
1851
1915
2082
2256
2341
2278
2145
1971
1860
1861
1969
2146
2271
2263
2132
1949
1806
1770
1850
2015
2162
2179
2074
1918
1760
1693
1727
1858
2029
2099
2033
1887
1739
1664
1693
1806
1991
2115
2112
1993
1824
1667
1630
1712
1889
2083
2128
2034
1881
1740
1679
1731
1872
2047
2114
2064
1907
1757
1664
1680
1809
1990
2134
2128
2007
1855
1718
1677
1759
1947
2109
2151
2054
1883
1718
1646
1695
1847
2032
2144
2096
1939
1767
1649
1653
1756
1911
2009
1971
1840
1677
1562
1564
1655
1827
1974
2005
1921
1757
1606
1535
1603
1751
1936
2041
1997
1846
1665
1567
1600
1712
1881
1997
1985
1856
1657
1490
1442
1510
1685
1866
1955
1940
1871
1814
1859
2014
2265
2544
2754
2802
2711
2555
2415
2347
2327
2320
2245
2055
1802
1535
1341
1276
1363
1568
1766
1855
1808
1664
1511
1438
1479
1667
1850
1941
1911
1803
1684
1610
1615
1705
1863
1989
1982
1871
1717
1590
1558
1645
1829
2010
2090
2007
1861
1701
1639
1679
1838
2037
2163
2122
1991
1840
1738
1747
1856
2037
2196
2227
2150
2007
1875
1840
1922
2097
2270
2330
2256
2103
1938
1863
1897
2030
2207
2305
2256
2113
1936
1823
1822
1939
2112
2256
2259
2149
1966
1813
1751
1809
1967
2134
2192
2108
1946
1790
1717
1739
1862
2026
2112
2081
1958
1803
1699
1701
1812
1998
2157
2158
2031
1854
1713
1677
1744
1905
2091
2159
2072
1910
1731
1653
1684
1829
2013
2121
2075
1933
1776
1681
1698
1815
2000
2144
2149
2026
1856
1714
1680
1753
1920
2095
2165
2095
1942
1791
1707
1722
1845
2032
2162
2151
2014
1832
1680
1648
1735
1904
2038
2045
1928
1755
1607
1561
1625
1793
1966
2018
1947
1791
1648
1584
1622
1761
1933
2046
2045
1919
1719
1603
1581
1665
1840
1963
1955
1840
1655
1488
1434
1490
1667
1879
2011
2035
1991
1950
1984
2144
2410
2714
2944
3018
2927
2743
2578
2443
2362
2311
2231
2082
1866
1635
1433
1357
1407
1583
1776
1872
1830
1699
1563
1499
1554
1727
1935
2055
2000
1854
1680
1565
1559
1669
1865
2032
2059
1968
1805
1653
1619
1677
1821
1985
2066
1999
1863
1718
1650
1689
1840
2045
2181
2162
2039
1874
1769
1771
1876
2070
2227
2275
2192
2057
1920
1876
1948
2126
2303
2368
2299
2154
1967
1868
1891
2027
2213
2331
2302
2175
1991
1879
1868
1957
2119
2262
2285
2178
2008
1869
1818
1873
2025
2186
2238
2160
1994
1828
1729
1746
1872
2061
2183
2157
2019
1845
1707
1680
1789
1968
2123
2152
2063
1898
1760
1718
1782
1942
2125
2193
2126
1964
1787
1713
1737
1871
2039
2176
2160
2013
1855
1726
1717
1809
1987
2161
2201
2105
1936
1795
1742
1795
1947
2123
2195
2135
2000
1840
1750
1773
1904
2103
2237
2209
2047
1851
1699
1662
1741
1903
2062
2083
1975
1814
1669
1611
1650
1803
1962
2029
1963
1823
1680
1602
1633
1766
1937
2075
2065
1947
1791
1663
1632
1712
1875
2011
2017
1886
1681
1506
1441
1497
1657
1856
1997
2015
1984
1970
2030
2191
2448
2773
3049
3151
3092
2928
2751
2619
2526
2471
2390
2229
1984
1726
1517
1424
1462
1630
1805
1887
1849
1753
1603
1523
1562
1700
1883
2013
1997
1875
1711
1573
1535
1650
1827
1983
2022
1943
1791
1647
1600
1654
1807
1981
2111
2068
1919
1762
1677
1703
1825
2005
2151
2160
2063
1903
1792
1796
1914
2096
2245
2288
2211
2077
1937
1895
1968
2128
2306
2390
2347
2213
2035
1913
1900
2006
2192
2320
2309
2176
2015
1904
1890
1965
2119
2285
2301
2188
2015
1855
1805
1864
2017
2195
2257
2169
2002
1840
1748
1766
1889
2074
2203
2183
2045
1872
1744
1721
1790
1983
2143
2176
2091
1934
1776
1712
1760
1905
2071
2157
2096
1962
1805
1713
1739
1850
2022
2139
2113
1991
1827
1701
1687
1783
1961
2130
2179
2098
1939
1799
1737
1770
1919
2102
2183
2129
1990
1830
1738
1754
1873
2071
2195
2195
2096
1924
1776
1727
1782
1936
2081
2111
2006
1840
1679
1607
1659
1813
1993
2079
2000
1850
1696
1598
1600
1691
1870
1999
2002
1916
1782
1673
1645
1710
1856
1996
2019
1906
1724
1557
1463
1495
1643
1843
1980
2003
1974
1949
1981
2118
2353
2667
2930
3059
3027
2883
2704
2559
2463
2391
2297
2131
1881
1633
1436
1315
1348
1512
1722
1840
1829
1719
1571
1484
1520
1653
1872
2025
2032
1914
1747
1596
1555
1631
1808
1978
2037
1968
1826
1680
1615
1671
1846
2053
2139
2093
1962
1818
1714
1710
1817
2013
2176
2187
2087
1934
1815
1795
1886
2071
2256
2311
2235
2112
1973
1893
1921
2059
2256
2371
2343
2223
2074
1956
1943
2060
2262
2397
2387
2271
2091
1922
1862
1931
2090
2240
2287
2208
2047
1899
1820
1846
1971
2131
2223
2179
2032
1875
1760
1744
1840
2001
2129
2141
2043
1889
1765
1719
1776
1929
2102
2160
2084
1934
1781
1718
1751
1877
2045
2160
2121
1982
1825
1709
1701
1809
1998
2157
2161
2054
1887
1742
1697
1776
1939
2110
2183
2121
1977
1831
1744
1766
1885
2066
2176
2138
1994
1838
1731
1731
1839
2010
2147
2149
2025
1856
1718
1687
1767
1933
2099
2133
2018
1836
1665
1588
1629
1771
1951
2064
2027
1891
1722
1600
1599
1725
1921
2075
2097
1993
1828
1678
1616
1659
1808
1976
2033
1958
1798
1627
1522
1559
1709
1899
2028
2039
1991
1941
1919
2021
2240
2526
2786
2899
2862
2704
2535
2429
2352
2301
2234
2069
1840
1584
1386
1297
1337
1483
1683
1837
1843
1727
1617
1531
1566
1687
1871
2027
2054
1941
1794
1665
1616
1683
1856
2033
2107
2035
1892
1744
1661
1697
1840
2029
2147
2128
2007
1856
1743
1740
1845
2021
2178
2211
2116
1971
1853
1834
1918
2086
2265
2334
2261
2125
1985
1919
1971
2119
2303
2416
2382
2259
2114
2018
2005
2104
2256
2375
2373
2262
2103
1959
1902
1957
2112
2283
2352
2273
2116
1932
1835
1839
1961
2133
2246
2223
2093
1901
1769
1746
1840
2021
2174
2180
2065
1903
1767
1728
1799
1968
2138
2201
2130
1984
1845
1763
1787
1913
2089
2193
2165
2034
1878
1758
1747
1858
2038
2203
2224
2106
1955
1822
1780
1841
1982
2127
2183
2117
1984
1847
1757
1779
1906
2086
2199
2185
2066
1906
1806
1789
1870
2038
2186
2206
2103
1933
1779
1713
1757
1904
2075
2145
2077
1913
1741
1642
1658
1791
1982
2113
2090
1959
1798
1680
1671
1773
1935
2085
2112
2022
1872
1733
1681
1744
1905
2066
2118
2020
1841
1663
1571
1595
1726
1914
2085
2124
2093
2035
2032
2143
2368
2668
2915
3022
2951
2768
2559
2383
2244
2171
2130
2059
1895
1680
1477
1374
1408
1582
1793
1993
2000
1891
1741
1628
1612
1712
1911
2097
2139
2029
1841
1709
1661
1727
1897
2095
2189
2123
1967
1803
1709
1733
1859
2047
2179
2163
2045
1891
1776
1776
1863
2055
2224
2266
2191
2047
1915
1872
1941
2106
2298
2399
2353
2215
2054
1954
1967
2083
2269
2400
2381
2265
2112
1997
1959
2039
2215
2367
2397
2290
2118
1967
1917
1969
2127
2283
2363
2293
2149
1981
1871
1858
1968
2138
2271
2246
2123
1970
1861
1811
1889
2028
2181
2206
2118
1951
1793
1726
1769
1914
2103
2194
2141
2000
1847
1759
1777
1915
2113
2255
2243
2127
1947
1806
1776
1862
2034
2195
2224
2128
1975
1841
1776
1824
1968
2151
2243
2191
2059
1898
1797
1805
1910
2094
2222
2215
2095
1936
1825
1798
1874
2026
2171
2213
2117
1951
1789
1707
1739
1878
2043
2130
2091
1938
1763
1645
1646
1770
1953
2082
2068
1946
1791
1676
1655
1754
1935
2106
2139
2033
1859
1694
1635
1683
1838
1999
2071
1990
1827
1648
1527
1535
1680
1875
2070
2160
2161
2127
2095
2167
2367
2672
2975
3141
3085
2891
2667
2467
2320
2225
2192
2119
1965
1763
1535
1406
1413
1553
1772
1940
1967
1873
1743
1629
1609
1687
1863
2032
2094
2000
1840
1675
1589
1625
1776
1955
2047
1995
1872
1713
1611
1641
1777
1982
2133
2143
2029
1891
1756
1730
1821
1993
2166
2229
2159
2007
1875
1810
1855
2010
2210
2320
2283
2159
2011
1919
1936
2055
2239
2363
2346
2229
2075
1946
1914
2000
2183
2349
2377
2287
2133
1975
1895
1926
2085
2268
2352
2283
2119
1936
1823
1840
1959
2144
2267
2273
2161
1997
1853
1789
1830
1975
2146
2213
2139
2000
1821
1734
1775
1927
2118
2229
2191
2058
1873
1756
1751
1872
2075
2223
2224
2110
1917
1754
1723
1820
1991
2149
2197
2111
1966
1824
1763
1809
1951
2128
2223
2186
2061
1881
1772
1780
1885
2059
2183
2181
2087
1920
1776
1727
1812
1996
2164
2211
2140
1983
1840
1774
1801
1909
2055
2123
2064
1911
1731
1622
1616
1725
1918
2079
2103
2017
1856
1712
1674
1741
1889
2032
2096
2010
1859
1702
1621
1653
1799
1984
2090
2025
1862
1669
1520
1506
1629
1828
1981
2016
1959
1872
1840
1922
2117
2422
2736
2960
3023
2970
2851
2757
2722
2720
2695
2550
2277
1964
1685
1483
1434
1519
1702
1862
1895
1821
1678
1582
1557
1645
1808
1975
2041
1975
1843
1709
1610
1622
1759
1946
2070
2035
1903
1730
1619
1633
1751
1936
2096
2134
2025
1857
1723
1686
1777
1947
2128
2199
2128
1981
1855
1777
1809
1953
2160
2288
2269
2163
2022
1909
1905
2006
2195
2348
2369
2274
2127
1980
1929
1989
2140
2301
2363
2288
2135
1969
1894
1920
2046
2226
2337
2311
2181
1999
1860
1842
1939
2122
2271
2288
2166
1977
1828
1777
1842
2003
2191
2253
2160
1987
1829
1751
1774
1897
2082
2203
2177
2042
1857
1747
1731
1829
2013
2154
2163
2074
1919
1783
1732
1807
1983
2160
2226
2153
1973
1798
1714
1743
1862
2032
2155
2142
2022
1856
1744
1744
1842
2032
2205
2225
2127
1968
1821
1746
1792
1951
2111
2193
2135
1993
1850
1771
1797
1931
2128
2242
2211
2091
1916
1776
1717
1782
1943
2085
2096
1977
1805
1665
1622
1693
1860
2035
2114
2038
1886
1715
1653
1694
1825
1994
2103
2078
1961
1790
1637
1596
1669
1827
1965
1982
1871
1691
1521
1469
1531
1744
1994
2186
2246
2250
2233
2279
2437
2701
3023
3302
3365
3245
2997
2701
2425
2239
2160
2135
2055
1872
1646
1465
1395
1454
1638
1843
1956
1936
1813
1657
1562
1583
1697
1878
2001
1984
1862
1711
1593
1579
1648
1825
2003
2059
1968
1822
1669
1591
1642
1802
1990
2097
2053
1918
1767
1682
1709
1850
2053
2198
2199
2082
1925
1813
1807
1914
2111
2287
2342
2259
2125
1978
1911
1965
2107
2277
2367
2320
2181
2018
1917
1930
2047
2233
2339
2304
2173
1994
1863
1851
1958
2173
2332
2345
2230
2061
1883
1799
1835
1980
2146
2224
2163
2010
1845
1758
1789
1913
2097
2224
2211
2080
1901
1754
1723
1802
1978
2144
2177
2077
1914
1767
1699
1747
1905
2100
2206
2158
2001
1826
1708
1712
1844
2032
2161
2146
2010
1852
1724
1706
1790
1961
2115
2151
2053
1903
1769
1737
1813
1967
2128
2203
2137
1987
1796
1699
1722
1861
2064
2205
2199
2087
1906
1759
1719
1778
1924
2096
2150
2055
1871
1691
1616
1654
1795
1967
2066
2019
1890
1743
1658
1669
1782
1947
2075
2054
1933
1770
1639
1623
1703
1882
2058
2089
1967
1767
1593
1518
1589
1722
1885
1999
2026
1968
1904
1903
2035
2295
2629
2910
3041
3023
2891
2725
2614
2549
2512
2417
2209
1931
1653
1424
1321
1362
1526
1744
1864
1861
1775
1651
1575
1591
1723
1918
2064
2059
1937
1776
1639
1606
1681
1857
2027
2071
2002
1870
1727
1653
1717
1874
2065
2174
2144
2004
1845
1743
1739
1850
2034
2191
2195
2105
1967
1850
1823
1904
2073
2267
2333
2258
2123
1987
1936
1994
2153
2343
2439
2385
2253
2084
1974
1983
2097
2287
2425
2426
2300
2126
1978
1936
2007
2182
2352
2391
2293
2128
1937
1838
1853
1964
2131
2240
2203
2066
1895
1776
1762
1867
2053
2202
2217
2112
1949
1811
1762
1821
1979
2154
2211
2130
1970
1810
1719
1757
1910
2096
2192
2133
1996
1838
1732
1731
1840
2015
2165
2179
2077
1914
1776
1727
1793
1959
2130
2196
2121
1973
1834
1760
1798
1936
2115
2224
2163
2019
1854
1739
1745
1870
2058
2193
2206
2131
1963
1815
1762
1824
1978
2146
2192
2107
1936
1767
1664
1687
1825
2000
2110
2062
1926
1775
1664
1654
1748
1922
2066
2095
2005
1842
1701
1655
1723
1894
2063
2121
2033
1874
1697
1584
1605
1729
1907
2018
1984
1851
1701
1627
1687
1857
2135
2395
2530
2559
2538
2525
2609
2743
2911
3033
2986
2739
2367
1971
1680
1569
1606
1738
1829
1801
1695
1573
1493
1511
1640
1842
2006
2032
1936
1791
1664
1622
1681
1837
1996
2071
2021
1875
1714
1636
1677
1813
2003
2138
2125
2001
1850
1733
1719
1813
1996
2153
2186
2096
1931
1782
1743
1825
2018
2224
2320
2283
2151
2005
1923
1943
2077
2257
2384
2357
2236
2079
1968
1969
2074
2253
2406
2426
2318
2160
2000
1941
2005
2161
2319
2370
2298
2152
1989
1901
1921
2061
2237
2346
2289
2149
1987
1862
1835
1911
2064
2191
2208
2121
1967
1840
1791
1845
1987
2138
2207
2159
2023
1865
1777
1803
1933
2112
2221
2202
2091
1903
1770
1759
1857
2034
2201
2234
2111
1927
1773
1715
1779
1943
2128
2209
2146
2006
1850
1761
1791
1923
2109
2224
2206
2075
1910
1808
1791
1859
2017
2175
2211
2112
1937
1787
1739
1807
1974
2160
2239
2178
2023
1856
1739
1715
1808
1961
2069
2064
1935
1773
1655
1642
1746
1942
2106
2130
2026
1863
1713
1648
1697
1861
2061
2143
2077
1936
1762
1680
1715
1840
1998
2096
2044
1889
1705
1573
1535
1639
1840
2039
2133
2138
2105
2080
2144
2329
2608
2900
3109
3103
2954
2736
2538
2405
2326
2271
2199
2064
1862
1632
1467
1434
1535
1727
1926
1985
1921
1777
1638
1594
1638
1782
1946
2032
1988
1860
1709
1604
1613
1742
1936
2047
2033
1940
1792
1679
1664
1767
1949
2114
2162
2096
1935
1788
1728
1789
1962
2153
2255
2191
2035
1890
1812
1854
1986
2170
2304
2298
2192
2047
1936
1927
2018
2204
2373
2410
2314
2145
1973
1911
1970
2130
2320
2398
2315
2151
1967
1872
1903
2027
2207
2335
2321
2198
2014
1869
1829
1905
2086
2250
2287
2198
2032
1873
1803
1843
1990
2182
2279
2227
2093
1907
1797
1790
1898
2083
2199
2202
2096
1936
1809
1783
1872
2055
2203
2223
2112
1939
1789
1725
1778
1935
2107
2204
2170
2038
1875
1759
1745
1846
2022
2167
2166
2054
1890
1776
1758
1837
2000
2158
2191
2112
1968
1811
1751
1789
1931
2113
2206
2154
2013
1840
1733
1744
1872
2080
2224
2219
2090
1904
1762
1727
1792
1952
2111
2129
2011
1841
1680
1600
1652
1811
2015
2113
2066
1931
1755
1627
1614
1723
1932
2091
2096
1966
1797
1662
1627
1701
1867
2017
2042
1931
1750
1591
1504
1535
1695
1893
2035
2077
2029
1974
1984
2128
2384
2729
3031
3173
3151
3024
2870
2768
2707
2671
2587
2388
2112
1825
1604
1483
1488
1619
1783
1872
1849
1743
1602
1502
1524
1654
1840
1979
1989
1876
1718
1595
1570
1635
1785
1950
2011
1931
1782
1648
1587
1618
1759
1948
2059
2005
1882
1734
1650
1665
1788
1984
2140
2143
2045
1885
1745
1718
1821
2012
2201
2266
2192
2031
1879
1824
1887
2043
2231
2322
2271
2146
1979
1871
1863
1969
2158
2294
2305
2199
2037
1902
1845
1904
2058
2214
2271
2183
2032
1874
1795
1826
1961
2143
2240
2199
2069
1897
1771
1747
1845
2020
2160
2171
2064
1888
1749
1709
1779
1956
2134
2185
2106
1948
1791
1705
1728
1869
2037
2141
2098
1971
1815
1710
1712
1818
1994
2128
2131
2010
1819
1700
1667
1735
1903
2075
2130
2060
1904
1744
1655
1683
1823
2006
2126
2097
1975
1839
1741
1733
1837
2012
2141
2123
2014
1847
1697
1649
1723
1903
2087
2167
2105
1949
1783
1680
1676
1797
1966
2064
2010
1859
1683
1584
1597
1707
1899
2037
2055
1953
1757
1597
1525
1591
1771
1943
2014
1943
1795
1643
1571
1607
1744
1914
2002
1939
1793
1614
1479
1468
1557
1728
1879
1921
1867
1781
1741
1808
2022
2341
2687
2927
3003
2973
2900
2859
2854
2871
2865
2715
2411
2063
1725
1486
1398
1451
1616
1766
1801
1717
1573
1452
1422
1501
1671
1852
1924
1857
1717
1535
1457
1494
1648
1843
1954
1929
1815
1664
1535
1535
1642
1825
1984
2000
1895
1730
1600
1565
1648
1827
2018
2109
2055
1917
1762
1681
1715
1850
2034
2175
2174
2060
1903
1791
1778
1895
2071
2221
2239
2130
1977
1831
1790
1857
2027
2213
2293
2226
2087
1931
1839
1841
1959
2133
2252
2226
2099
1917
1785
1763
1847
2022
2175
2198
2093
1905
1742
1679
1738
1923
2127
2194
2122
1966
1778
1673
1679
1808
2000
2119
2073
1935
1778
1662
1646
1737
1914
2086
2128
2011
1817
1648
1579
1632
1807
2000
2100
2039
1886
1717
1632
1643
1761
1952
2081
2047
1914
1751
1627
1600
1680
1868
2046
2096
1994
1840
1714
1663
1713
1857
2031
2105
2028
1866
1712
1629
1664
1806
1991
2112
2098
1981
1825
1710
1689
1774
1906
2047
2057
1927
1744
1583
1527
1572
1715
1902
1989
1920
1776
1614
1517
1530
1664
1842
1968
1955
1839
1671
1535
1527
1595
1745
1903
1952
1861
1701
1535
1456
1470
1593
1748
1844
1823
1737
1640
1625
1729
1949
2257
2526
2667
2702
2677
2665
2691
2779
2915
2966
2816
2459
2014
1623
1399
1359
1454
1616
1712
1675
1561
1427
1361
1408
1588
1797
1933
1926
1797
1617
1472
1441
1521
1691
1851
1891
1818
1680
1535
1495
1572
1728
1905
2005
1953
1822
1669
1569
1584
1706
1895
2026
2032
1942
1797
1682
1669
1769
1959
2141
2196
2123
1978
1837
1776
1825
1981
2176
2298
2268
2131
1965
1864
1871
1989
2178
2314
2323
2217
2059
1906
1871
1941
2113
2272
2303
2206
2032
1865
1778
1814
1939
2119
2219
2169
2005
1827
1707
1698
1811
1999
2127
2099
1971
1809
1681
1653
1737
1914
2085
2128
2037
1878
1723
1641
1679
1837
2021
2118
2066
1918
1764
1663
1671
1791
1970
2112
2112
2003
1855
1716
1667
1728
1886
2034
2081
1987
1845
1695
1637
1697
1852
2033
2149
2131
2015
1854
1728
1706
1789
1968
2111
2112
2002
1850
1715
1680
1761
1921
2083
2128
2034
1882
1726
1649
1685
1809
1973
2069
2011
1871
1695
1603
1600
1708
1894
2041
2045
1942
1791
1648
1597
1663
1834
2002
2073
2000
1853
1698
1617
1654
1782
1940
2014
1967
1825
1655
1522
1505
1616
1827
1986
2039
1997
1920
1904
1993
2185
2469
2741
2890
2891
2775
2615
2474
2402
2387
2353
2228
1987
1712
1464
1327
1322
1441
1653
1829
1873
1808
1678
1577
1558
1664
1846
2020
2093
2011
1875
1727
1639
1671
1799
2002
2118
2080
1946
1779
1664
1665
1776
1973
2139
2160
2062
1890
1759
1719
1802
1984
2165
2240
2181
2047
1904
1840
1887
2031
2226
2352
2338
2227
2085
1975
1968
2082
2270
2423
2443
2342
2193
2066
2026
2105
2256
2399
2431
2335
2178
2009
1927
1961
2099
2270
2378
2342
2194
2011
1878
1854
1945
2128
2269
2265
2148
1982
1843
1802
1853
2000
2171
2240
2166
2018
1857
1777
1826
1974
2145
2236
2195
2064
1875
1757
1747
1857
2053
2199
2205
2087
1911
1770
1728
1786
1953
2138
2217
2141
1983
1817
1738
1774
1917
2097
2192
2152
2026
1872
1762
1744
1831
1998
2160
2198
2105
1945
1803
1744
1792
1938
2112
2183
2119
1965
1810
1735
1770
1904
2096
2212
2191
2060
1886
1744
1715
1791
1957
2107
2116
2013
1869
1724
1669
1723
1872
2043
2120
2059
1891
1742
1654
1690
1820
1998
2112
2092
1968
1803
1680
1680
1781
1963
2096
2096
1968
1789
1647
1605
1680
1868
2093
2220
2231
2181
2144
2163
2290
2510
2781
2974
2962
2812
2581
2342
2161
2036
2000
1994
1925
1777
1584
1443
1407
1495
1696
1907
2034
2026
1917
1773
1665
1673
1778
1960
2083
2067
1950
1805
1703
1691
1773
1936
2093
2122
2032
1883
1761
1715
1776
1938
2125
2214
2169
2032
1867
1776
1799
1918
2096
2234
2230
2119
1967
1856
1850
1942
2128
2298
2352
2288
2155
2014
1965
2014
2163
2343
2427
2375
2245
2091
1986
2002
2128
2310
2431
2401
2267
2096
1947
1922
1998
2160
2315
2337
2230
2064
1904
1848
1896
2039
2209
2276
2219
2075
1904
1794
1797
1905
2091
2210
2192
2079
1904
1795
1789
1872
2054
2203
2220
2121
1962
1808
1747
1802
1957
2145
2228
2160
2003
1847
1756
1776
1906
2093
2206
2176
2045
1876
1752
1731
1821
2001
2178
2215
2115
1947
1801
1741
1791
1948
2129
2237
2185
2044
1872
1761
1762
1872
2057
2183
2162
2035
1869
1741
1731
1833
2002
2165
2190
2089
1916
1746
1670
1711
1850
2023
2105
2045
1907
1739
1665
1680
1792
1974
2112
2083
1947
1772
1635
1612
1700
1875
2043
2087
1994
1840
1699
1613
1649
1783
1937
2015
1963
1823
1669
1590
1642
1834
2109
2339
2433
2431
2394
2398
2480
2640
2863
3041
3061
2892
2591
2224
1927
1776
1786
1872
1920
1843
1703
1557
1466
1488
1635
1831
2001
2001
1882
1712
1588
1569
1675
1861
2031
2087
2000
1843
1694
1607
1631
1778
1968
2079
2037
1905
1753
1649
1654
1782
1997
2143
2134
2016
1850
1721
1695
1779
1968
2143
2202
2141
2015
1872
1809
1872
2042
2242
2333
2277
2143
1985
1904
1917
2063
2255
2383
2374
2245
2059
1898
1856
1933
2107
2261
2306
2215
2069
1904
1833
1868
2017
2209
2306
2255
2109
1931
1815
1808
1911
2096
2233
2240
2121
1939
1799
1766
1835
1991
2151
2199
2125
1979
1829
1747
1778
1919
2101
2189
2135
1992
1823
1712
1724
1846
2035
2176
2183
2077
1922
1777
1727
1791
1943
2114
2163
2087
1934
1766
1681
1719
1861
2047
2160
2128
1984
1819
1719
1730
1845
2026
2161
2169
2059
1904
1763
1716
1782
1954
2125
2178
2112
1955
1804
1727
1774
1925
2113
2218
2192
2058
1879
1748
1727
1819
1986
2138
2138
2017
1838
1679
1631
1699
1845
2009
2071
2002
1854
1697
1619
1649
1789
1968
2091
2069
1936
1763
1648
1634
1743
1937
2079
2086
1966
1780
1614
1535
1607
1791
1989
2114
2122
2082
2044
2096
2258
2539
2879
3135
3214
3130
2942
2759
2621
2515
2451
2363
2195
1953
1705
1504
1437
1498
1693
1904
2005
1971
1841
1657
1530
1534
1658
1843
1958
1914
1781
1616
1509
1520
1643
1841
2000
2021
1921
1761
1623
1574
1648
1819
1993
2069
2003
1870
1727
1661
1711
1849
2032
2157
2139
2026
1894
1807
1810
1905
2083
2226
2236
2122
1957
1834
1818
1904
2086
2269
2341
2277
2128
1956
1865
1892
2023
2203
2309
2272
2144
1973
1849
1826
1923
2125
2289
2320
2225
2037
1861
1788
1839
1995
2167
2225
2141
1986
1838
1751
1776
1918
2090
2192
2161
2021
1881
1739
1723
1823
2003
2155
2178
2067
1901
1758
1714
1765
1911
2096
2178
2109
1936
1773
1666
1677
1811
2001
2128
2112
1994
1827
1707
1683
1775
1957
2116
2158
2055
1890
1745
1685
1744
1904
2091
2176
2118
1983
1815
1711
1733
1869
2067
2199
2170
2019
1845
1733
1723
1818
1996
2149
2176
2081
1926
1791
1725
1751
1886
2061
2130
2044
1875
1699
1598
1606
1715
1896
2008
2000
1882
1751
1646
1626
1715
1893
2034
2053
1947
1777
1641
1603
1679
1841
2000
2059
1957
1791
1615
1487
1483
1603
1796
1938
1939
1877
1803
1796
1913
2153
2480
2800
2992
3027
2945
2849
2791
2786
2814
2785
2607
2295
1939
1647
1436
1377
1465
1648
1803
1814
1717
1595
1504
1516
1622
1810
1978
2000
1899
1730
1584
1526
1584
1751
1959
2053
1984
1841
1687
1598
1627
1762
1955
2079
2061
1942
1792
1669
1642
1730
1923
2099
2147
2077
1935
1791
1732
1789
1969
2167
2252
2194
2071
1933
1839
1859
2000
2205
2347
2339
2220
2038
1911
1883
1967
2143
2305
2349
2273
2130
1968
1897
1938
2076
2246
2341
2282
2138
1959
1846
1827
1929
2107
2249
2236
2128
1950
1798
1747
1822
1999
2165
2211
2126
1958
1786
1696
1743
1885
2096
2191
2131
1999
1840
1729
1728
1834
2000
2139
2135
2011
1861
1744
1743
1811
1970
2134
2154
2031
1870
1715
1645
1675
1808
1985
2106
2093
1961
1803
1707
1719
1840
2014
2148
2142
2033
1878
1728
1686
1776
1947
2122
2165
2093
1960
1832
1759
1813
1967
2160
2227
2155
1990
1774
1643
1650
1778
1968
2114
2118
2005
1821
1675
1633
1709
1879
2047
2106
2018
1866
1711
1645
1708
1863
2036
2135
2081
1926
1750
1638
1644
1763
1956
2096
2077
1919
1733
1584
1535
1627
1829
2032
2143
2133
2060
2019
2079
2236
2499
2794
2998
3026
2907
2723
2559
2474
2415
2368
2287
2096
1853
1616
1442
1392
1471
1674
1879
1967
1905
1767
1616
1559
1609
1759
1948
2063
2034
1914
1760
1664
1668
1788
1984
2124
2114
2005
1850
1714
1680
1761
1942
2124
2181
2110
1966
1813
1744
1795
1956
2150
2249
2224
2101
1931
1837
1847
1967
2150
2317
2329
2233
2079
1945
1919
2000
2192
2368
2430
2352
2214
2066
1984
2022
2167
2354
2448
2391
2251
2069
1947
1939
2045
2219
2341
2332
2210
2034
1897
1845
1910
2084
2243
2299
2222
2055
1862
1758
1787
1922
2112
2229
2192
2047
1887
1782
1778
1865
2030
2160
2161
2059
1895
1755
1712
1789
1966
2142
2215
2145
1979
1810
1731
1771
1909
2096
2192
2139
1994
1830
1727
1728
1839
2017
2160
2167
2064
1893
1765
1729
1797
1964
2146
2207
2119
1959
1808
1721
1759
1904
2103
2214
2169
2030
1850
1717
1713
1835
2031
2192
2203
2096
1914
1749
1679
1728
1879
2064
2116
2043
1897
1741
1648
1671
1799
1973
2093
2061
1929
1753
1635
1639
1759
1957
2129
2139
2016
1851
1708
1661
1723
1876
2035
2086
1985
1827
1671
1589
1636
1811
2061
2242
2302
2277
2223
2234
2349
2559
2860
3106
3141
2979
2710
2421
2164
2000
1965
2000
1981
1840
1654
1482
1422
1471
1634
1841
1979
1966
1853
1697
1606
1616
1725
1883
2032
2075
1977
1794
1663
1636
1713
1879
2055
2116
2032
1871
1718
1634
1665
1818
2026
2158
2134
2006
1860
1739
1722
1810
1983
2139
2161
2067
1915
1796
1767
1843
2027
2240
2315
2256
2112
1931
1827
1853
1994
2192
2322
2301
2167
1991
1877
1876
1984
2176
2332
2366
2255
2065
1902
1840
1898
2058
2233
2300
2224
2064
1884
1776
1785
1908
2096
2211
2177
2038
1868
1742
1723
1813
1991
2141
2163
2067
1904
1763
1712
1776
1931
2111
2185
2113
1954
1792
1702
1725
1860
2047
2181
2160
2031
1872
1757
1735
1815
1981
2141
2173
2067
1887
1738
1680
1744
1902
2090
2161
2096
1951
1791
1710
1725
1851
2034
2161
2143
2021
1872
1754
1719
1814
1990
2161
2207
2112
1943
1803
1738
1787
1942
2129
2209
2150
1999
1830
1723
1719
1849
2002
2126
2095
1959
1792
1663
1641
1742
1917
2064
2087
1983
1824
1664
1618
1665
1835
2026
2115
2054
1919
1757
1648
1663
1794
1981
2096
2059
1925
1740
1605
1598
1701
1895
2095
2177
2166
2112
2071
2125
2304
2587
2881
3071
3067
2904
2675
2464
2329
2263
2256
2224
2085
1878
1661
1492
1453
1535
1731
1921
1986
1921
1776
1632
1557
1619
1776
1965
2055
2000
1861
1711
1601
1606
1729
1923
2067
2080
1961
1791
1643
1613
1699
1878
2035
2099
2015
1865
1712
1663
1733
1907
2099
2187
2142
2021
1874
1790
1810
1929
2106
2256
2271
2169
2001
1884
1872
1971
2149
2320
2361
2273
2121
1968
1901
1947
2096
2281
2377
2306
2150
1970
1853
1847
1968
2149
2281
2269
2163
2005
1869
1844
1905
2067
2229
2265
2171
2000
1840
1762
1807
1967
2128
2223
2162
2019
1868
1774
1780
1899
2080
2210
2203
2096
1931
1791
1749
1829
1999
2171
2223
2121
1946
1782
1713
1763
1917
2102
2198
2160
2032
1867
1754
1739
1837
2004
2131
2130
2021
1859
1726
1698
1776
1969
2148
2194
2111
1976
1809
1740
1785
1934
2119
2233
2178
2032
1879
1783
1805
1917
2098
2239
2242
2117
1925
1765
1710
1783
1954
2117
2140
2025
1853
1697
1637
1687
1839
2015
2110
2067
1926
1749
1635
1631
1755
1958
2106
2109
2003
1860
1730
1683
1742
1903
2066
2096
1986
1809
1631
1530
1559
1705
1911
2075
2122
2079
2023
2064
2209
2471
2807
3110
3235
3191
3023
2841
2721
2650
2615
2544
2391
2155
1873
1630
1488
1488
1627
1825
1949
1918
1793
1636
1535
1563
1677
1866
2019
2029
1921
1760
1627
1593
1670
1843
2018
2095
2013
1853
1691
1600
1659
1811
2005
2127
2113
2003
1849
1721
1709
1819
2021
2154
2161
2068
1921
1805
1779
1863
2059
2231
2299
2242
2112
1977
1919
1977
2128
2319
2416
2366
2207
2032
1923
1919
2035
2237
2393
2407
2297
2134
1985
1954
2035
2198
2351
2390
2295
2117
1931
1842
1873
2007
2178
2275
2237
2107
1936
1809
1798
1904
2085
2229
2234
2111
1913
1767
1719
1793
1966
2141
2210
2146
1984
1822
1732
1759
1887
2047
2151
2126
2007
1868
1762
1759
1849
2002
2142
2145
2035
1869
1744
1709
1774
1939
2126
2195
2116
1954
1792
1715
1753
1899
2095
2206
2163
2029
1862
1744
1740
1853
2042
2205
2229
2123
1929
1774
1721
1791
1939
2133
2187
2102
1925
1744
1631
1632
1763
1945
2053
2009
1886
1714
1601
1616
1734
1925
2081
2095
1974
1803
1673
1625
1707
1871
2033
2083
1979
1809
1643
1557
1594
1719
1883
1977
1918
1762
1603
1499
1533
1701
1966
2215
2330
2347
2304
2282
2359
2543
2805
3019
3119
2992
2736
2397
2089
1859
1799
1846
1869
1793
1637
1456
1350
1375
1526
1775
1968
2005
1917
1757
1600
1535
1603
1774
1963
2017
1947
1798
1648
1575
1612
1748
1926
2037
2017
1893
1730
1620
1637
1758
1949
2107
2112
1997
1840
1707
1658
1730
1907
2106
2193
2121
1985
1842
1763
1797
1939
2159
2293
2277
2143
1977
1851
1840
1946
2129
2268
2288
2194
2031
1915
1873
1931
2083
2270
2334
2243
2071
1894
1809
1840
1970
2151
2268
2235
2098
1920
1801
1783
1875
2064
2211
2231
2126
1949
1793
1750
1795
1936
2103
2160
2085
1951
1807
1717
1735
1872
2067
2194
2167
2009
1821
1687
1667
1771
1970
