2559
2347
1959
1590
1389
1437
1744
2146
2373
2315
2038
1675
1398
1360
1589
1986
2319
2358
2133
1750
1446
1334
1473
1850
2224
2365
2224
1903
1562
1387
1449
1754
2153
2389
2336
2055
1677
1401
1365
1598
1997
2332
2381
2166
1815
1501
1392
1535
1926
2307
2454
2313
1983
1643
1467
1559
1895
2301
2530
2451
2153
1766
1491
1465
1706
2107
2425
2463
2256
1910
1615
1513
1678
2063
2448
2599
2445
2109
1768
1594
1654
1958
2377
2615
2535
2253
1889
1627
1604
1842
2243
2558
2583
2357
1996
1683
1578
1723
2089
2448
2559
2384
2021
1649
1455
1515
1840
2242
2477
2399
2110
1725
1445
1403
1639
2027
2326
2334
2096
1742
1437
1340
1498
1872
2230
2340
2173
1823
1471
1291
1364
1709
2125
2361
2274
1969
1601
1354
1345
1599
1995
2299
2299
2043
1682
1382
1294
1466
1855
2224
2351
2196
1871
1521
1337
1408
1738
2133
2369
2295
1992
1634
1382
1366
1627
2037
2351
2350
2093
1712
1407
1322
1488
1871
2244
2368
2211
1875
1535
1375
1455
1790
2190
2405
2327
2032
1665
1406
1397
1661
2064
2379
2400
2171
1808
1488
1389
1559
1935
2305
2427
2269
1936
1605
1438
1520
1847
2229
2428
2331
2035
1690
1439
1433
1709
2119
2421
2431
2189
1813
1502
1408
1586
1959
2315
2417
2251
1921
1589
1414
1488
1815
2222
2446
2366
2079
1718
1472
1467
1717
2109
2385
2368
2112
1741
1427
1348
1529
1926
2301
2416
2242
1883
1567
1393
1488
1840
2243
2455
2374
2080
1719
1467
1469
1730
2150
2447
2451
2198
1831
1531
1441
1629
2007
2377
2503
2357
2032
1707
1527
1602
1923
2307
2496
2391
2096
1744
1515
1520
1788
2192
2493
2494
2226
1832
1498
1391
1559
1937
2295
2398
2224
1877
1553
1399
1488
1831
2228
2438
2341
2035
1680
1443
1446
1712
2125
2426
2433
2174
1779
1469
1379
1567
1936
2274
2352
2159
1815
1498
1376
1520
1933
2390
2686
2671
2461
2217
2112
2251
2640
3182
3637
3677
3322
2823
2352
2070
2033
2236
2450
2457
2211
1827
1463
1297
1407
1776
2190
2396
2294
1983
1614
1377
1380
1643
2019
2299
2277
2019
1649
1361
1291
1474
1861
2217
2306
2127
1791
1459
1314
1413
1767
2176
2384
2282
1968
1614
1375
1392
1683
2093
2381
2375
2114
1750
1468
1395
1595
1984
2355
2458
2288
1938
1612
1449
1535
1878
2273
2476
2368
2047
1680
1453
1472
1767
2185
2482
2480
2245
1887
1594
1508
1696
2089
2443
2529
2339
1997
1664
1522
1651
2017
2426
2634
2522
2217
1856
1633
1647
1917
2310
2591
2559
2293
1921
1633
1553
1740
2129
2469
2539
2311
1933
1581
1408
1503
1856
2253
2426
2295
1968
1599
1380
1408
1701
2108
2387
2375
2107
1721
1420
1357
1568
1950
2288
2346
2131
1766
1415
1259
1375
1744
2143
2334
2224
1929
1581
1341
1358
1648
2054
2320
2288
2007
1633
1343
1280
1494
1901
2259
2345
2149
1786
1453
1301
1414
1759
2147
2327
2215
1904
1535
1331
1366
1650
2075
2346
2324
2075
1711
1429
1379
1591
1981
2326
2402
2205
1846
1520
1371
1488
1855
2257
2447
2330
2000
1635
1399
1415
1703
2111
2379
2354
2107
1735
1453
1385
1590
1981
2321
2386
2179
1826
1495
1366
1493
1856
2240
2407
2285
1968
1620
1398
1428
1721
2115
2381
2343
2073
1695
1414
1371
1598
1997
2347
2417
2210
1852
1520
1392
1506
1878
2246
2420
2313
2005
1660
1445
1473
1763
2155
2399
2351
2077
1708
1447
1421
1658
2065
2399
2438
2207
1834
1488
1360
1488
1861
2254
2426
2290
1968
1622
1418
1463
1769
2188
2446
2399
2135
1788
1527
1487
1708
2112
2447
2510
2301
1937
1608
1470
1603
1956
2336
2490
2362
2034
1671
1444
1478
1776
2177
2429
2374
2101
1746
1494
1458
1679
2079
2384
2409
2169
1797
1471
1351
1494
1872
2265
2425
2288
1965
1601
1402
1459
1776
2189
2450
2402
2096
1694
1408
1373
1611
2013
2375
2484
2351
2096
1875
1865
2113
2595
3119
3430
3396
3120
2775
2544
2508
2657
2861
2893
2661
2247
1790
1446
1361
1568
1958
2287
2342
2143
1795
1485
1371
1514
1875
2245
2386
2237
1882
1517
1323
1375
1697
2103
2352
2293
2007
1643
1371
1343
1584
1983
2307
2345
2122
1773
1451
1337
1488
1872
2264
2427
2287
1959
1607
1409
1461
1779
2192
2447
2387
2107
1729
1456
1423
1663
2079
2401
2451
2243
1894
1573
1455
1577
1963
2355
2517
2395
2094
1756
1584
1662
1979
2394
2624
2558
2244
1849
1578
1553
1807
2226
2557
2605
2382
2022
1726
1625
1786
2161
2547
2686
2511
2159
1781
1573
1616
1913
2304
2527
2448
2161
1792
1527
1498
1737
2124
2419
2439
2203
1827
1495
1378
1515
1883
2256
2401
2251
1921
1564
1362
1425
1746
2146
2383
2313
2009
1627
1376
1354
1604
2005
2327
2356
2125
1754
1441
1327
1468
1834
2204
2336
2186
1840
1505
1326
1397
1735
2142
2365
2283
1987
1617
1354
1331
1579
1979
2298
2330
2106
1749
1429
1326
1473
1867
2261
2407
2254
1926
1585
1393
1456
1767
2160
2379
2295
1989
1630
1378
1366
1630
2047
2385
2417
2194
1840
1522
1396
1535
1914
2283
2407
2251
1920
1579
1393
1469
1803
2199
2430
2349
2053
1682
1426
1415
1667
2076
2397
2448
2199
1825
1483
1358
1514
1897
2274
2413
2261
1935
1590
1399
1470
1793
2191
2423
2349
2059
1682
1420
1407
1670
2090
2394
2413
2170
1810
1507
1397
1558
1936
2301
2429
2269
1936
1603
1420
1489
1805
2190
2394
2310
2013
1647
1394
1401
1671
2096
2420
2451
2225
1868
1574
1487
1671
2039
2411
2521
2350
2000
1663
1487
1573
1900
2294
2509
2419
2121
1746
1501
1498
1751
2150
2448
2466
2224
1850
1535
1433
1591
1948
2305
2403
2214
1855
1504
1354
1458
1813
2223
2437
2349
2038
1661
1396
1390
1657
2063
2368
2375
2130
1758
1447
1344
1516
1899
2279
2429
2326
2066
1823
1758
1952
2397
2928
3290
3302
3070
2761
2527
2485
2641
2879
2980
2787
2369
1883
1501
1374
1529
1909
2259
2385
2207
1840
1508
1356
1456
1803
2206
2416
2307
1975
1584
1323
1303
1563
1966
2266
2277
2032
1677
1385
1313
1504
1904
2263
2365
2192
1856
1531
1371
1459
1795
2191
2391
2299
1984
1622
1387
1409
1685
2087
2383
2384
2148
1792
1491
1414
1606
2000
2384
2512
2342
1995
1655
1495
1603
1959
2367
2555
2431
2107
1735
1511
1534
1818
2218
2507
2498
2249
1899
1621
1567
1757
2142
2502
2614
2440
2112
1778
1619
1714
2047
2442
2640
2522
2202
1825
1579
1573
1843
2252
2523
2501
2238
1858
1568
1485
1668
2055
2402
2485
2287
1920
1558
1389
1477
1815
2213
2415
2301
1972
1593
1331
1314
1581
1978
2278
2275
2032
1680
1397
1341
1526
1907
2240
2319
2122
1771
1426
1267
1379
1733
2126
2320
2214
1903
1535
1328
1360
1642
2035
2317
2308
2061
1687
1401
1351
1561
1957
2321
2421
2242
1875
1505
1328
1423
1776
2179
2368
2256
1937
1578
1351
1377
1670
2083
2364
2341
2078
1709
1426
1379
1609
2006
2361
2445
2243
1890
1535
1398
1503
1856
2240
2415
2291
1970
1609
1392
1427
1731
2148
2430
2403
2134
1765
1472
1411
1613
2001
2353
2433
2240
1911
1587
1428
1535
1898
2296
2487
2384
2075
1712
1485
1494
1766
2147
2413
2385
2111
1725
1426
1361
1572
1967
2321
2399
2199
1852
1531
1403
1523
1877
2261
2439
2320
1991
1639
1411
1442
1744
2161
2437
2421
2176
1822
1535
1488
1703
2108
2461
2525
2336
1983
1651
1509
1628
1977
2361
2549
2447
2127
1755
1525
1535
1818
2208
2452
2401
2127
1754
1459
1405
1623
2031
2383
2448
2241
1875
1535
1383
1491
1856
2249
2429
2302
1984
1629
1415
1465
1765
2171
2427
2377
2099
1717
1424
1359
1574
1977
2330
2431
2284
2025
1781
1755
1985
2440
2921
3213
3187
2950
2672
2502
2538
2783
3070
3151
2878
2384
1851
1469
1359
1535
1921
2241
2304
2096
1763
1453
1341
1488
1860
2230
2378
2230
1890
1517
1302
1335
1641
2054
2325
2298
2032
1679
1403
1373
1607
2006
2337
2393
2183
1831
1503
1370
1495
1859
2256
2430
2305
1979
1619
1414
1463
1777
2201
2480
2449
2177
1799
1510
1445
1651
2043
2373
2432
2210
1847
1527
1407
1567
1941
2340
2512
2383
2070
1729
1521
1584
1899
2305
2550
2501
2242
1908
1664
1648
1887
2290
2624
2673
2453
2105
1787
1669
1803
2166
2544
2688
2533
2193
1825
1616
1670
1968
2342
2559
2493
2205
1834
1558
1507
1728
2121
2437
2465
2220
1840
1495
1360
1494
1867
2249
2409
2267
1922
1555
1340
1389
1695
2108
2338
2277
2000
1649
1395
1366
1591
1969
2273
2298
2085
1715
1393
1275
1418
1794
2193
2360
2237
1909
1554
1339
1373
1671
2064
2302
2249
1974
1625
1373
1349
1591
1987
2318
2361
2137
1763
1424
1301
1447
1821
2204
2362
2219
1883
1525
1332
1392
1709
2113
2363
2320
2035
1665
1393
1360
1591
1983
2307
2339
2115
1759
1451
1341
1488
1856
2243
2389
2247
1922
1590
1392
1437
1735
2125
2358
2302
2029
1669
1412
1392
1635
2059
2367
2389
2150
1774
1438
1327
1463
1843
2223
2369
2218
1873
1521
1344
1426
1779
2194
2417
2336
2046
1678
1422
1401
1635
2022
2335
2368
2145
1791
1474
1370
1520
1891
2249
2378
2222
1890
1535
1360
1435
1771
2182
2427
2366
2071
1699
1442
1434
1690
2108
2428
2463
2247
1891
1565
1438
1581
1933
2291
2432
2275
1951
1610
1408
1459
1776
2160
2361
2265
1957
1589
1330
1302
1529
1925
2243
2288
2068
1709
1394
1296
1456
1838
2210
2347
2187
1836
1464
1280
1351
1675
2078
2298
2208
1890
1506
1247
1232
1488
1919
2278
2371
2231
1977
1782
1803
2093
2594
3095
3361
3280
2977
2631
2403
2352
2487
2664
2635
2354
1939
1494
1200
1158
1392
1803
2160
2198
1971
1621
1324
1226
1390
1770
2135
2255
2090
1752
1390
1200
1271
1600
2000
2224
2153
1855
1493
1255
1249
1488
1914
2222
2237
1995
1634
1335
1249
1418
1803
2176
2302
2149
1825
1478
1298
1360
1685
2096
2321
2251
1978
1635
1392
1399
1665
2059
2332
2326
2087
1726
1425
1343
1519
1905
2273
2397
2239
1903
1578
1411
1493
1828
2227
2454
2384
2103
1755
1524
1535
1808
2223
2521
2527
2273
1890
1584
1495
1678
2061
2416
2521
2326
1974
1637
1459
1531
1846
2221
2409
2310
2006
1648
1413
1419
1667
2060
2335
2318
2061
1686
1376
1281
1429
1790
2128
2212
2026
1665
1322
1152
1247
1585
1984
2208
2128
1822
1455
1214
1211
1472
1890
2195
2205
1963
1584
1297
1217
1390
1771
2125
2212
2003
1663
1307
1136
1233
1578
1982
2192
2096
1791
1437
1206
1230
1507
1922
2231
2235
1985
1630
1325
1259
1426
1800
2142
2225
2030
1663
1327
1154
1273
1616
2018
2231
2143
1840
1486
1261
1269
1535
1958
2259
2258
2010
1637
1324
1228
1391
1776
2126
2224
2041
1701
1373
1226
1329
1680
2074
2272
2164
1846
1482
1252
1269
1553
1966
2254
2243
1993
1616
1315
1232
1415
1805
2163
2263
2087
1747
1413
1260
1362
1711
2101
2269
2135
1813
1430
1200
1217
1495
1911
2202
2199
1955
1601
1307
1234
1424
1814
2176
2284
2099
1744
1403
1235
1329
1671
2065
2267
2162
1855
1495
1271
1296
1596
2015
2310
2314
2077
1710
1430
1362
1565
1953
2302
2383
2179
1801
1412
1225
1308
1655
2059
2260
2162
1852
1489
1264
1275
1535
1953
2240
2235
1978
1612
1310
1231
1415
1809
2162
2256
2073
1734
1394
1239
1335
1677
2061
2250
2146
1831
1466
1230
1237
1511
1905
2191
2176
1921
1587
1355
1363
1655
2142
2598
2795
2715
2481
2271
2240
2445
2839
3245
3376
3118
2595
1999
1535
1370
1520
1856
2107
2077
1798
1427
1154
1098
1310
1726
2097
2205
2022
1680
1341
1182
1281
1630
2009
2193
2078
1771
1424
1200
1235
1532
1954
2240
2219
1945
1577
1296
1251
1465
1869
2217
2304
2121
1769
1431
1282
1389
1744
2131
2315
2201
1894
1535
1334
1362
1655
2064
2337
2316
2060
1701
1405
1349
1559
1957
2311
2393
2192
1843
1520
1383
1505
1874
2275
2458
2350
2047
1705
1488
1520
1821
2241
2524
2503
2241
1883
1611
1554
1760
2158
2497
2559
2367
2000
1666
1513
1625
1971
2352
2532
2411
2085
1723
1481
1501
1778
2167
2424
2379
2096
1711
1414
1359
1553
1931
2256
2310
2098
1729
1390
1239
1350
1711
2094
2256
2128
1818
1454
1246
1291
1598
2000
2276
2227
1942
1574
1293
1237
1451
1862
2210
2267
2047
1689
1350
1213
1335
1711
2113
2297
2177
1855
1488
1269
1302
1597
2017
2301
2272
2000
1640
1366
1325
1535
1940
2298
2366
2150
1778
1440
1298
1423
1782
2176
2336
2198
1871
1509
1308
1355
1654
2079
2352
2325
2047
1671
1382
1330
1535
1937
2298
2381
2189
1837
1502
1377
1500
1861
2224
2368
2227
1899
1535
1351
1415
1742
2159
2418
2366
2087
1715
1437
1392
1611
1994
2333
2397
2195
1841
1515
1388
1520
1890
2273
2430
2291
1955
1591
1377
1417
1743
2145
2406
2361
2079
1711
1437
1394
1631
2041
2385
2438
2218
1849
1515
1380
1507
1886
2275
2442
2305
1975
1615
1401
1449
1763
2190
2463
2439
2176
1819
1535
1489
1709
2110
2444
2485
2251
1876
1566
1456
1616
1999
2390
2559
2422
2085
1695
1454
1472
1769
2160
2394
2334
2044
1670
1397
1362
1593
2003
2341
2390
2173
1812
1502
1393
1533
1909
2288
2437
2309
1987
1628
1424
1472
1779
2192
2448
2389
2096
1701
1417
1375
1605
2017
2371
2469
2323
2064
1846
1831
2075
2519
3006
3264
3188
2896
2559
2354
2351
2559
2834
2897
2631
2173
1678
1342
1267
1487
1891
2239
2306
2111
1767
1463
1360
1515
1902
2283
2428
2273
1935
1584
1386
1439
1762
2181
2437
2384
2107
1735
1469
1440
1680
2085
2422
2471
2247
1873
1535
1408
1535
1923
2306
2459
2323
1997
1653
1461
1525
1843
2243
2483
2416
2130
1762
1500
1478
1721
2134
2462
2507
2295
1937
1628
1517
1667
2044
2432
2583
2433
2112
1765
1584
1663
1985
2413
2678
2626
2344
1975
1719
1680
1904
2302
2645
2721
2526
2192
1887
1790
1951
2336
2715
2831
2637
2253
1841
1610
1648
1962
2371
2614
2538
2236
1854
1585
1565
1805
2192
2498
2510
2259
1873
1535
1424
1580
1942
2317
2443
2274
1917
1535
1355
1424
1755
2161
2405
2341
2058
1690
1419
1393
1637
2038
2371
2411
2194
1840
1535
1433
1591
1967
2346
2478
2304
1943
1555
1338
1392
1706
2127
2368
2305
2018
1664
1413
1392
1645
2053
2378
2403
2167
1783
1463
1357
1520
1916
2304
2439
2279
1936
1584
1391
1450
1796
2213
2447
2378
2112
1733
1466
1447
1687
2092
2416
2448
2224
1861
1561
1458
1643
2025
2416
2545
2363
2000
1629
1419
1477
1809
2225
2465
2391
2096
1728
1471
1449
1707
2118
2446
2471
2218
1821
1495
1393
1564
1959
2347
2480
2315
1964
1619
1442
1521
1861
2277
2518
2453
2159
1781
1513
1472
1713
2118
2431
2443
2194
1830
1521
1425
1598
1978
2361
2491
2324
1983
1643
1463
1557
1897
2320
2559
2503
2220
1857
1614
1597
1840
2209
2474
2453
2198
1835
1527
1441
1616
2002
2384
2512
2338
1985
1621
1424
1488
1819
2224
2451
2377
2078
1701
1453
1442
1710
2115
2419
2423
2183
1819
1520
1411
1574
1943
2326
2448
2282
1941
1590
1414
1502
1837
2235
2448
2367
2070
1696
1447
1473
1804
2304
2703
2802
2653
2373
2163
2161
2411
2849
3287
3427
3183
2713
2225
1854
1722
1868
2151
2304
2205
1918
1573
1339
1349
1623
2043
2375
2415
2177
1806
1485
1383
1554
1943
2323
2438
2271
1922
1582
1393
1456
1809
2234
2461
2366
2061
1698
1445
1452
1714
2122
2432
2439
2198
1837
1535
1456
1648
2055
2416
2530
2352
2003
1661
1475
1535
1879
2289
2517
2427
2122
1759
1523
1525
1799
2209
2518
2531
2300
1951
1661
1568
1738
2125
2502
2630
2466
2131
1791
1619
1711
2058
2465
2699
2619
2324
1970
1735
1739
2000
2407
2717
2734
2490
2130
1822
1724
1889
2263
2612
2710
2522
2164
1791
1600
1678
2003
2375
2559
2443
2115
1730
1478
1484
1759
2182
2486
2490
2238
1850
1526
1415
1588
1969
2322
2416
2212
1849
1487
1315
1397
1766
2182
2402
2314
2015
1630
1377
1376
1650
2080
2397
2403
2154
1770
1451
1349
1516
1917
2279
2384
2213
1869
1535
1382
1477
1815
2213
2416
2306
1987
1620
1384
1396
1671
2071
2368
2373
2128
1758
1469
1395
1601
2000
2373
2483
2304
1965
1616
1437
1524
1867
2253
2442
2321
2001
1634
1405
1424
1707
2112
2397
2391
2142
1776
1477
1393
1587
1987
2355
2461
2285
1923
1585
1427
1534
1885
2277
2471
2369
2064
1710
1478
1494
1776
2192
2490
2480
2214
1823
1514
1428
1611
2000
2364
2455
2275
1911
1565
1403
1511
1869
2288
2509
2414
2110
1744
1511
1525
1810
2224
2508
2481
2211
1826
1521
1446
1648
2047
2421
2527
2352
2005
1670
1502
1610
1955
2352
2547
2429
2108
1725
1473
1471
1739
2147
2431
2418
2161
1797
1497
1435
1648
2065
2444
2555
2361
2010
1665
1510
1615
1946
2326
2499
2371
2064
1702
1470
1471
1744
2167
2445
2431
2174
1821
1557
1535
1818
2294
2736
2914
2810
2533
2279
2192
2354
2757
3197
3391
3195
2733
2194
1776
1611
1763
2107
2353
2320
2059
1686
1408
1360
1584
1973
2359
2456
2274
1911
1568
1415
1523
1883
2283
2463
2341
2013
1645
1405
1423
1711
2139
2441
2431
2174
1792
1499
1438
1647
2041
2408
2495
2299
1935
1594
1439
1535
1907
2315
2500
2384
2066
1699
1483
1523
1829
2250
2544
2525
2258
1890
1587
1483
1659
2034
2378
2461
2282
1945
1619
1490
1622
1978
2386
2603
2497
2195
1843
1626
1664
1961
2374
2661
2639
2365
1989
1679
1615
1827
2242
2621
2718
2537
2181
1861
1719
1823
2157
2511
2662
2502
2159
1776
1533
1554
1837
2238
2509
2479
2203
1811
1511
1441
1631
2000
2342
2421
2220
1866
1534
1392
1509
1872
2277
2454
2316
1971
1600
1369
1399
1709
2122
2404
2383
2111
1732
1439
1365
1575
1973
2336
2416
2213
1841
1498
1349
1462
1829
2230
2426
2310
1991
1627
1409
1434
1725
2136
2400
2352
2070
1695
1414
1366
1574
1993
2352
2426
2227
1869
1529
1393
1515
1870
2271
2459
2341
2023
1662
1441
1475
1786
2203
2477
2447
2178
1814
1525
1461
1666
2071
2400
2470
2257
1885
1535
1393
1498
1877
2288
2479
2363
2032
1654
1430
1459
1749
2169
2446
2409
2139
1761
1472
1415
1631
2029
2380
2440
2226
1857
1520
1381
1505
1883
2289
2467
2345
2021
1653
1451
1467
1763
2174
2451
2432
2181
1814
1535
1491
1730
2142
2484
2544
2315
1919
1535
1393
1520
1897
2304
2487
2370
2058
1712
1501
1531
1817
2212
2467
2418
2135
1739
1447
1386
1606
2007
2358
2431
2237
1862
1520
1377
1490
1851
2234
2400
2275
1961
1607
1394
1431
1743
2161
2441
2409
2131
1758
1478
1434
1647
2017
2333
2384
2178
1815
1535
1456
1657
2107
2582
2832
2769
2522
2251
2123
2224
2559
3004
3281
3181
2782
2263
1818
1615
1714
2041
2341
2389
2186
1830
1499
1344
1431
1763
2129
2298
2199
1893
1535
1335
1387
1695
2124
2402
2371
2110
1763
1490
1435
1639
2011
2335
2379
2158
1785
1449
1324
1461
1840
2239
2421
2299
1974
1618
1401
1434
1733
2141
2402
2360
2081
1712
1445
1411
1645
2035
2384
2445
2240
1886
1570
1439
1569
1927
2322
2492
2368
2056
1707
1491
1535
1855
2263
2535
2502
2245
1876
1623
1600
1831
2223
2535
2559
2320
1941
1613
1486
1634
2002
2386
2546
2391
2082
1719
1505
1553
1851
2249
2497
2442
2158
1771
1482
1431
1650
2041
2368
2405
2181
1805
1469
1332
1455
1819
2209
2357
2202
1867
1500
1296
1344
1653
2077
2351
2309
2030
1654
1370
1315
1508
1885
2217
2266
2053
1696
1381
1276
1426
1808
2191
2352
2218
1877
1510
1307
1362
1673
2089
2340
2293
2014
1642
1366
1333
1554
1953
2279
2331
2126
1779
1472
1362
1509
1861
2219
2359
2214
1891
1535
1344
1398
1711
2112
2357
2315
2047
1691
1424
1385
1616
2016
2347
2413
2207
1851
1518
1397
1520
1873
2256
2403
2256
1926
1581
1385
1440
1742
2159
2401
2352
2079
1710
1427
1392
1631
2041
2383
2436
2234
1878
1574
1455
1600
1969
2352
2499
2351
2000
1622
1408
1461
1790
2208
2451
2384
2087
1712
1453
1424
1675
2095
2432
2485
2277
1913
1584
1455
1594
1950
2322
2468
2315
1983
1635
1444
1506
1831
2227
2479
2423
2144
1775
1510
1477
1708
2100
2421
2477
2264
1918
1610
1507
1677
2058
2433
2589
2447
2127
1771
1582
1645
1951
2352
2579
2497
2197
1829
1569
1535
1770
2161
2483
2529
2315
1965
1655
1535
1695
2033
2384
2512
2354
2015
1659
1460
1523
1851
2256
2502
2448
2166
1804
1535
1500
1749
2157
2480
2528
2304
1931
1593
1458
1602
1968
2336
2471
2321
2003
1693
1552
1679
2081
2585
2922
2942
2727
2432
2242
2283
2559
2995
3372
3401
3093
2599
2112
1808
1795
2047
2349
2449
2293
1956
1600
1411
1475
1793
2193
2437
2390
2125
1771
1510
1483
1712
2109
2419
2450
2221
1863
1535
1442
1606
1983
2355
2493
2341
2013
1683
1515
1584
1878
2271
2506
2442
2163
1806
1535
1530
1773
2164
2481
2525
2305
1953
1661
1568
1733
2119
2495
2631
2454
2128
1754
1535
1607
1943
2358
2608
2513
2203
1827
1572
1555
1809
2225
2559
2610
2397
2044
1732
1623
1778
2152
2533
2695
2555
2234
1895
1718
1791
2116
2513
2743
2667
2371
2007
1754
1735
1978
2369
2679
2704
2475
2109
1778
1661
1793
2145
2499
2639
2486
2160
1802
1601
1646
1946
2329
2548
2465
2170
1791
1511
1472
1701
2083
2401
2423
2185
1825
1520
1422
1587
1947
2307
2447
2305
1973
1633
1445
1510
1840
2240
2480
2416
2125
1760
1494
1463
1716
2128
2450
2474
2240
1879
1574
1471
1647
2021
2386
2509
2343
2000
1664
1470
1535
1870
2282
2503
2426
2128
1761
1507
1502
1759
2189
2507
2531
2287
1905
1567
1444
1609
1983
2358
2483
2329
2002
1663
1471
1531
1862
2278
2513
2449
2161
1786
1517
1503
1767
2176
2489
2510
2284
1921
1616
1505
1663
2030
2391
2519
2353
2009
1664
1467
1582
1907
2318
2544
2471
2176
1808
1535
1533
1775
2179
2498
2519
2288
1920
1601
1488
1639
1994
2343
2473
2320
1999
1675
1509
1602
1939
2352
2559
2481
2173
1796
1521
1488
1733
2139
2448
2463
2227
1872
1567
1469
1634
2000
2367
2494
2331
1987
1646
1475
1571
1898
2301
2517
2435
2140
1765
1502
1488
1745
2158
2462
2480
2249
1874
1574
1475
1636
2020
2384
2512
2352
2019
1689
1533
1648
1991
2397
2613
2534
2239
1871
1626
1625
1889
2262
2534
2519
2271
1897
1590
1502
1694
2089
2456
2559
2391
2039
1689
1490
1565
1887
2272
2492
2413
2125
1758
1502
1499
1755
2154
2447
2463
2231
1867
1563
1471
1651
2026
2384
2495
2321
1990
1651
1477
1557
1867
2256
2461
2379
2107
1778
1595
1662
1996
2493
2891
2991
2823
2558
2363
2350
2582
3008
3403
3465
3131
2603
2057
1683
1615
1857
2219
2416
2319
2005
1648
1401
1419
1699
2127
2442
2455
2213
1856
1568
1484
1634
1978
2315
2416
2242
1903
1561
1389
1471
1795
2213
2434
2352
2043
1683
1441
1451
1719
2130
2432
2447
2207
1840
1535
1445
1617
1994
2366
2486
2320
1983
1646
1478
1577
1904
2293
2494
2402
2117
1775
1535
1535
1806
2211
2523
2537
2294
1920
1621
1535
1727
2109
2469
2581
2413
2074
1744
1589
1697
2047
2475
2704
2629
2325
1967
1733
1736
1984
2358
2643
2639
2381
2011
1710
1626
1805
2179
2514
2611
2429
2093
1744
1583
1677
2000
2376
2554
2429
2097
1718
1481
1486
1743
2141
2431
2423
2173
1805
1491
1403
1582
1958
2318
2416
2240
1895
1564
1406
1499
1815
2229
2434
2331
2017
1643
1395
1399
1675
2087
2382
2385
2135
1770
1456
1368
1535
1951
2320
2429
2261
1927
1598
1434
1523
1863
2256
2448
2341
2029
1665
1422
1411
1670
2065
2352
2353
2110
1738
1442
1361
1553
1949
2319
2432
2269
1935
1598
1429
1522
1853
2240
2446
2352
2047
1694
1459
1474
1753
2153
2432
2416
2153
1777
1475
1407
1601
1985
2339
2439
2272
1939
1619
1455
1535
1883
2286
2482
2384
2077
1712
1483
1501
1776
2179
2467
2449
2190
1808
1510
1442
1635
2022
2381
2474
2284
1910
1568
1409
1520
1872
2276
2474
2364
2042
1673
1435
1446
1731
2148
2434
2419
2161
1793
1505
1442
1644
2031
2379
2467
2279
1927
1591
1433
1527
1872
2270
2478
2377
2073
1713
1478
1488
1759
2157
2434
2423
2171
1808
1505
1433
1630
2017
2368
2459
2273
1925
1593
1428
1535
1890
2288
2486
2384
2074
1699
1454
1472
1755
2176
2482
2475
2226
1838
1533
1462
1654
2039
2400
2496
2311
1957
1607
1428
1521
1873
2283
2489
2400
2103
1744
1509
1530
1811
2222
2514
2511
2256
1882
1606
1535
1744
2127
2461
2549
2365
2021
1681
1527
1646
1984
2362
2534
2416
2100
1732
1503
1520
1790
2190
2466
2441
2176
1801
1503
1437
1633
2016
2387
2484
2294
1958
1613
1467
1587
1923
2304
2478
2359
2058
1693
1455
1471
1744
2142
2407
2387
2128
1776
1519
1510
1782
2255
2704
2903
2824
2598
2389
2352
2543
2963
3427
3664
3440
2960
2413
1979
1792
1918
2224
2436
2384
2112
1735
1452
1397
1604
1999
2353
2430
2224
1874
1535
1392
1501
1853
2254
2442
2336
2032
1690
1472
1490
1771
2158
2422
2402
2157
1775
1485
1427
1628
2010
2361
2448
2279
1953
1639
1501
1623
1973
2363
2535
2415
2098
1739
1516
1535
1826
2215
2452
2399
2124
1754
1479
1435
1655
2067
2432
2519
2330
1984
1655
1505
1619
1974
2373
2559
2451
2147
1779
1559
1605
1905
2322
2608
2605
2352
2000
1725
1666
1871
2261
2609
2679
2475
2127
1790
1648
1762
2121
2515
2704
2589
2269
1904
1686
1716
1990
2367
2606
2540
2251
1853
1535
1473
1694
2090
2429
2499
2294
1923
1584
1414
1509
1866
2247
2416
2291
1975
1624
1405
1435
1717
2114
2383
2351
2093
1737
1459
1412
1637
2031
2366
2435
2235
1872
1525
1375
1488
1859
2245
2424
2303
1989
1641
1421
1456
1755
2178
2443
2413
2135
1758
1463
1397
1616
2015
2368
2463
2287
1944
1631
1497
1614
1942
2309
2461
2323
2000
1644
1424
1455
1725
2137
2406
2375
2114
1744
1471
1415
1633
2031
2379
2453
2265
1919
1598
1454
1581
1926
2309
2480
2362
2045
1701
1483
1511
1798
2193
2458
2422
2160
1794
1509
1459
1666
2067
2416
2481
2288
1949
1644
1520
1636
1956
2297
2439
2304
1999
1664
1458
1505
1799
2203
2466
2428
2165
1807
1530
1475
1692
2093
2425
2492
2288
1929
1590
1440
1566
1930
2330
2498
2373
2045
1682
1472
1517
1825
2229
2484
2447
2185
1806
1531
1477
1696
2094
2432
2501
2310
1958
1627
1477
1589
1934
2315
2486
2363
2047
1683
1458
1491
1805
2217
2499
2487
2241
1895
1634
1603
1822
2209
2522
2545
2302
1926
1581
1429
1557
1915
2317
2496
2373
2058
1706
1501
1556
1866
2279
2543
2511
2246
1888
1620
1584
1792
2175
2486
2531
2322
1970
1648
1514
1635
1985
2378
2544
2426
2128
1750
1521
1564
1855
2246
2483
2420
2129
1765
1503
1475
1715
2122
2463
2517
2314
1962
1631
1485
1615
1965
2345
2506
2380
2060
1694
1474
1515
1795
2186
2435
2379
2115
1766
1520
1520
1799
2266
2685
2842
2735
2479
2275
2270
2509
2967
3475
3755
3562
3098
2559
2163
2000
2112
2366
2523
2416
2110
1719
1439
1394
1621
2025
2366
2431
2232
1873
1552
1423
1535
1904
2274
2429
2289
1968
1615
1402
1441
1744
2147
2409
2365
2106
1745
1467
1421
1625
2032
2378
2438
2241
1904
1594
1472
1616
1981
2368
2525
2393
2070
1711
1507
1557
1855
2245
2486
2432
2153
1789
1518
1483
1715
2127
2461
2527
2326
1977
1664
1535
1685
2063
2466
2646
2507
2182
1837
1626
1675
1969
2371
2636
2596
2330
1969
1705
1678
1904
2320
2663
2711
2495
2143
1820
1687
1817
2176
2547
2704
2559
2237
1873
1662
1686
1968
2361
2608
2547
2273
1910
1638
1581
1776
2151
2465
2512
2288
1920
1599
1461
1600
1962
2343
2507
2367
2036
1671
1438
1461
1744
2141
2383
2327
2045
1684
1426
1398
1637
2033
2368
2421
2207
1853
1522
1398
1535
1904
2288
2443
2295
1957
1603
1395
1433
1734
2129
2390
2354
2096
1753
1475
1453
1683
2087
2410
2450
2233
1872
1535
1418
1574
1923
2313
2458
2320
1995
1655
1460
1519
1830
2239
2487
2430
2147
1780
1514
1488
1714
2112
2434
2479
2259
1906
1585
1485
1625
1980
2347
2482
2334
2003
1659
1472
1535
1856
2263
2511
2440
2154
1783
1509
1463
1696
2090
2415
2473
2267
1915
1587
1459
1604
1970
2353
2506
2359
2031
1685
1493
1535
1854
2245
2487
2437
2161
1792
1527
1497
1728
2128
2454
2496
2287
1925
1605
1493
1655
2019
2391
2539
2391
2065
1712
1507
1565
1867
2273
2526
2461
2175
1792
1511
1479
1718
2123
2453
2497
2272
1888
1595
1479
1618
1969
2346
2496
2353
2022
1667
1470
1520
1823
2238
2482
2422
2143
1782
1535
1520
1769
2171
2499
2539
2314
1955
1648
1531
1685
2067
2449
2609
2463
2132
1767
1570
1638
1950
2357
2602
2526
2241
1872
1595
1569
1793
2177
2480
2495
2262
1898
1587
1472
1633
2013
2397
2539
2399
2084
1746
1566
1620
1926
2325
2559
2477
2161
1764
1482
1448
1686
2094
2415
2450
2235
1869
1535
1414
1567
1936
2319
2463
2321
2016
1730
1611
1771
2187
2689
3041
3091
2903
2643
2485
2549
2834
3249
3563
3454
3001
2414
1891
1622
1681
1993
2334
2439
2273
1931
1584
1392
1456
1787
2193
2423
2359
2070
1689
1429
1407
1653
2063
2386
2432
2218
1865
1558
1442
1590
1939
2295
2418
2270
1949
1601
1408
1468
1776
2166
2401
2339
2067
1726
1472
1455
1695
2103
2428
2478
2256
1889
1568
1456
1617
2002
2365
2494
2349
2031
1701
1523
1600
1911
2318
2551
2495
2213
1853
1606
1598
1837
2231
2546
2579
2356
1997
1702
1623
1799
2170
2535
2672
2518
2192
1856
1683
1755
2071
2473
2717
2647
2348
1975
1714
1691
1927
2327
2643
2671
2433
2062
1719
1589
1714
2080
2427
2550
2382
2032
1664
1461
1518
1838
2229
2450
2371
2080
1707
1450
1424
1664
2063
2368
2390
2159
1781
1458
1353
1517
1899
2258
2380
2219
1886
1552
1374
1454
1776
2176
2403
2329
2033
1671
1425
1424
1685
2100
2408
2416
2170
1789
1466
1355
1518
1898
2265
2385
2230
1894
1535
1345
1406
1728
2138
2384
2319
2032
1679
1435
1430
1687
2086
2381
2394
2161
1794
1471
1368
1532
1904
2287
2419
2263
1936
1597
1415
1482
1805
2195
2421
2335
2043
1664
1407
1391
1651
2061
2369
2395
2178
1827
1519
1423
1597
1965
2332
2449
2279
1933
1581
1392
1471
1803
2195
2410
2323
2029
1676
1443
1445
1701
2109
2414
2432
2189
1814
1504
1414
1584
1959
2331
2447
2272
1922
1567
1378
1456
1787
2189
2417
2342
2035
1664
1403
1393
1662
2074
2374
2399
2173
1819
1517
1423
1589
1967
2331
2448
2285
1941
1594
1405
1474
1795
2190
2428
2359
2076
1715
1473
1469
1723
2122
2416
2430
2196
1840
1535
1436
1607
1985
2363
2496
2355
2027
1697
1526
1614
1920
2307
2522
2438
2139
1765
1509
1504
1755
2156
2448
2463
2229
1859
1535
1434
1585
1947
2299
2416
2255
1915
1559
1390
1481
1817
2214
2424
2336
2033
1680
1435
1437
1691
2105
2416
2425
2171
1791
1470
1370
1535
1904
2253
2377
2224
1895
1586
1465
1630
2042
2531
2845
2870
2678
2437
2326
2442
2799
3287
3695
3679
3271
2705
2173
1827
1793
2023
2303
2387
2209
1863
1533
1374
1471
1807
2193
2384
2288
1982
1619
1367
1360
1602
1984
2272
2271
2026
1680
1392
1315
1493
1888
2263
2383
2213
1868
1519
1347
1427
1763
2159
2368
2287
1986
1627
1385
1390
1661
2070
2370
2371
2135
1782
1498
1424
1607
1985
2353
2469
2288
1943
1602
1442
1558
1906
2313
2539
2460
2163
1803
1561
1567
1825
2231
2534
2544
2315
1967
1681
1600
1776
2158
2519
2640
2467
2122
1793
1631
1727
2055
2437
2657
2582
2288
1921
1677
1666
1915
2294
2581
2582
2335
1968
1654
1535
1691
2055
2399
2498
2322
1981
1648
1475
1557
1879
2263
2462
2368
2067
1675
1411
1392
1634
2019
2321
2326
2078
1712
1411
1335
1519
1907
2269
2356
2176
1835
1489
1326
1408
1746
2141
2338
2241
1930
1567
1328
1336
1610
2010
2318
2322
2083
1717
1421
1343
1519
1904
2259
2381
2222
1873
1518
1355
1456
1793
2191
2400
2310
2015
1670
1437
1433
1679
2057
2325
2320
2087
1734
1451
1378
1554
1929
2273
2371
2202
1871
1555
1398
1489
1836
2211
2398
2291
1986
1629
1387
1391
1663
2078
2369
2373
2134
1770
1473
1390
1535
1938
2279
2388
2219
1863
1520
1354
1441
1776
2180
2384
2294
1991
1636
1399
1412
1687
2096
2379
2369
2125
1773
1488
1420
1604
1971
2342
2419
2224
1871
1526
1370
1466
1793
2171
2361
2258
1959
1619
1399
1414
1685
2087
2371
2359
2107
1739
1443
1377
1581
1971
2330
2429
2249
1907
1573
1409
1510
1862
2245
2448
2358
2064
1715
1478
1491
1766
2160
2443
2447
2207
1851
1567
1489
1669
2034
2375
2465
2288
1941
1599
1437
1524
1854
2229
2403
2283
1959
1588
1346
1366
1663
2063
2346
2341
2097
1732
1431
1350
1529
1909
2258
2358
2186
1840
1506
1344
1439
1779
2163
2355
2250
1946
1600
1387
1441
1776
2256
2647
2758
2624
2369
2192
2222
2503
2980
3423
3546
3268
2778
2255
1858
1718
1865
2128
2259
2128
1823
1495
1283
1324
1611
2021
2316
2305
2045
1680
1386
1322
1520
1915
2270
2357
2176
1833
1498
1347
1447
1791
2175
2371
2277
1970
1618
1392
1406
1669
2046
2319
2303
2064
1725
1445
1381
1579
1968
2326
2413
2230
1895
1582
1424
1530
1883
2269
2450
2343
2037
1680
1453
1470
1747
2159
2443
2429
2187
1839
1569
1515
1723
2127
2490
2596
2416
2082
1728
1570
1669
2005
2406
2620
2521
2224
1872
1650
1679
1962
2366
2650
2638
2395
2033
1743
1673
1857
2241
2587
2663
2467
2113
1760
1579
1655
1987
2370
2559
2448
2130
1761
1520
1520
1775
2161
2422
2382
2111
1729
1438
1371
1567
1946
2301
2385
2204
1854
1522
1387
1494
1828
2189
2341
2203
1872
1507
1295
1328
1622
2027
2295
2270
2005
1640
1353
1293
1493
1903
2271
2368
2167
1798
1456
1313
1425
1776
2160
2352
2245
1936
1583
1362
1399
1691
2099
2368
2347
2087
1726
1434
1365
1567
1952
2303
2379
2187
1835
1489
1345
1460
1810
2205
2395
2294
1995
1646
1415
1426
1713
2113
2387
2368
2113
1751
1459
1390
1583
1961
2304
2379
2187
1834
1494
1346
1455
1801
2183
2359
2256
1952
1599
1386
1424
1722
2123
2395
2375
2112
1743
1466
1424
1649
2031
2368
2416
2196
1829
1479
1323
1424
1776
2170
2362
2263
1968
1623
1394
1413
1689
2099
2384
2367
2112
1754
1477
1418
1621
2010
2353
2417
2224
1889
1574
1427
1535
1893
2273
2452
2351
2043
1697
1475
1503
1791
2187
2449
2416
2153
1797
1499
1442
1638
2009
2343
2405
2214
1871
1553
1401
1499
1825
2224
2394
2258
1926
1579
1361
1397
1700
2107
2378
2348
2078
1718
1424
1365
1577
1963
2291
2356
2150
1791
1457
1322
1447
1807
2235
2471
2426
2215
1965
1854
1968
2333
2816
3184
3238
3006
2643
2330
2195
2256
2477
2610
2482
2145
1712
1349
1207
1339
1693
2096
2289
2183
1882
1535
1346
1391
1705
2121
2389
2357
2078
1686
1386
1299
1475
1870
2226
2320
2145
1791
1441
1296
1413
1763
2137
2305
2194
1885
1535
1351
1403
1703
2109
2384
2352
2081
1718
1450
1406
1616
2001
2346
2417
2224
1875
1535
1403
1529
1898
2286
2458
2334
2019
1677
1477
1529
1831
2242
2510
2469
2199
1827
1524
1487
1715
2123
2467
2551
2366
2026
1709
1578
1696
2045
2432
2607
2481
2180
1837
1625
1667
1964
2362
2624
2559
2288
1923
1641
1573
1759
2139
2454
2489
2267
1901
1567
1421
1527
1872
2239
2384
2250
1924
1572
1363
1396
1680
2069
2323
2270
1994
1621
1343
1286
1496
1899
2240
2304
2085
1710
1362
1222
1347
1712
2095
2250
2129
1819
1471
1277
1323
1616
2011
2270
2229
1956
1597
1328
1275
1476
1867
2203
2273
2087
1746
1437
1294
1395
1734
2103
2263
2135
1825
1486
1296
1350
1661
2070
2336
2305
2029
1647
1357
1312
1534
1937
2275
2331
2123
1776
1458
1327
1453
1821
2205
2356
2219
1891
1534
1327
1374
1682
2095
2354
2318
2043
1664
1396
1347
1570
1968
2310
2367
2149
1790
1471
1350
1482
1840
2204
2362
2233
1906
1552
1345
1386
1681
2079
2331
2293
2031
1665
1390
1345
1570
1959
2288
2363
2175
1822
1495
1371
1507
1869
2254
2414
2275
1965
1606
1395
1435
1742
2151
2410
2370
2110
1758
1487
1439
1664
2026
2331
2365
2155
1802
1476
1357
1468
1809
2179
2337
2202
1888
1535
1347
1394
1703
2107
2361
2306
2019
1664
1394
1354
1568
1949
2284
2333
2130
1771
1453
1330
1456
1808
2177
2343
2227
1937
1648
1513
1659
2045
2515
2846
2883
2703
2427
2238
2242
2470
2833
3105
3020
2634
2103
1614
1357
1410
1732
2102
2261
2147
1843
1498
1316
1382
1700
2102
2349
2286
1983
1602
1328
1286
1505
1900
2233
2288
2083
1728
1407
1290
1425
1787
2170
2332
2209
1879
1512
1316
1374
1681
2082
2325
2279
1997
1632
1363
1330
1567
1969
2299
2343
2128
1775
1463
1343
1481
1851
2231
2397
2274
1945
1603
1408
1462
1770
2178
2436
2399
2133
1783
1532
1495
1722
2110
2432
2481
2270
1928
1609
1499
1646
2014
2402
2559
2424
2101
1749
1557
1602
1889
2315
2559
2517
2250
1891
1617
1570
1776
2153
2455
2495
2275
1901
1569
1434
1571
1930
2295
2431
2279
1938
1591
1390
1423
1712
2092
2325
2267
1969
1599
1318
1286
1503
1898
2221
2262
2045
1691
1378
1255
1394
1758
2123
2263
2126
1793
1441
1253
1315
1639
2055
2304
2250
1969
1610
1349
1328
1565
1962
2289
2334
2121
1751
1424
1296
1438
1809
2182
2320
2177
1855
1510
1335
1382
1682
2070
2308
2256
1979
1631
1375
1349
1583
1991
2331
2393
2185
1824
1502
1392
1535
1901
2277
2421
2285
1953
1591
1383
1428
1734
2129
2368
2317
2047
1701
1433
1401
1629
2025
2352
2402
2199
1845
1532
1408
1526
1879
2256
2407
2277
1949
1589
1395
1453
1762
2162
2416
2367
2098
1737
1468
1425
1650
2032
2347
2375
2165
1815
1515
1418
1581
1953
2338
2487
2343
2010
1658
1457
1514
1823
2213
2449
2395
2123
1772
1523
1509
1744
2133
2448
2487
2266
1904
1568
1424
1555
1920
2286
2419
2267
1936
1585
1387
1445
1755
2159
2397
2339
2064
1712
1456
1433
1667
2071
2378
2410
2190
1838
1522
1409
1535
1903
2267
2412
2274
1952
1619
1456
1575
1947
2443
2769
2799
2614
2350
2190
2247
2545
2992
3369
3396
3071
2559
2091
1776
1739
1975
2269
2374
2222
1897
1552
1357
1415
1730
2133
2372
2310
2019
1651
1397
1392
1648
2037
2347
2368
2142
1792
1488
1391
1535
1919
2288
2425
2270
1935
1595
1407
1456
1769
2169
2398
2337
2064
1717
1457
1437
1666
2054
2375
2415
2190
1840
1533
1427
1599
1958
2321
2448
2298
1974
1635
1457
1534
1861
2267
2508
2439
2155
1794
1535
1520
1749
2151
2468
2512
2307
1968
1667
1570
1728
2107
2471
2618
2473
2158
1838
1675
1737
2045
2439
2666
2598
2308
1937
1686
1664
1894
2288
2594
2608
2368
2000
1667
1523
1659
2026
2391
2534
2384
2035
1691
1479
1535
1839
2224
2445
2374
2074
1683
1405
1375
1616
2023
2346
2379
2155
1799
1485
1389
1535
1904
2271
2403
2251
1907
1578
1397
1463
1778
2173
2415
2355
2064
1681
1418
1403
1651
2047
2358
2390
2171
1813
1488
1371
1522
1896
2261
2399
2243
1909
1569
1387
1455
1779
2174
2398
2327
2042
1670
1392
1353
1584
1985
2302
2334
2114
1762
1463
1375
1533
1911
2283
2418
2256
1917
1573
1392
1479
1810
2215
2445
2370
2091
1727
1471
1446
1680
2070
2373
2403
2185
1831
1522
1423
1583
1962
2337
2463
2301
1959
1605
1408
1471
1792
2198
2447
2385
2106
1747
1498
1479
1727
2133
2450
2480
2229
1842
1513
1403
1562
1935
2303
2429
2273
1936
1593
1408
1479
1807
2194
2430
2371
2089
1727
1479
1479
1740
2153
2459
2479
2246
1887
1575
1462
1616
1986
2353
2483
2334
2000
1657
1483
1575
1901
2303
2517
2439
2142
1759
1490
1472
1719
2125
2433
2455
2219
1857
1554
1456
1620
1996
2359
2479
2305
1955
1605
1417
1482
1797
2192
2423
2351
2064
1699
1445
1424
1675
2075
2384
2408
2171
1808
1501
1431
1637
2094
2529
2751
2683
2441
2218
2157
2326
2736
3218
3531
3439
3050
2559
2150
1936
1984
2222
2431
2407
2160
1790
1468
1359
1519
1920
2285
2402
2225
1873
1533
1360
1438
1773
2183
2418
2352
2064
1694
1437
1426
1683
2093
2409
2432
2206
1846
1535
1431
1596
1968
2338
2458
2285
1953
1616
1444
1529
1854
2254
2467
2384
2101
1739
1488
1478
1729
2129
2439
2466
2251
1899
1603
1507
1675
2043
2405
2514
2352
2029
1689
1513
1594
1915
2310
2540
2461
2176
1827
1600
1602
1866
2281
2595
2628
2404
2059
1760
1664
1823
2192
2556
2677
2507
2176
1840
1677
1769
2097
2483
2691
2598
2278
1899
1643
1616
1851
2239
2535
2551
2289
1907
1589
1472
1627
1991
2353
2463
2288
1943
1596
1398
1470
1797
2193
2410
2323
2026
1658
1403
1396
1651
2047
2345
2354
2121
1764
1458
1367
1531
1903
2277
2395
2240
1909
1555
1371
1435
1776
2176
2407
2333
2037
1679
1424
1402
1656
2059
2361
2375
2135
1775
1467
1378
1554
1936
2293
2402
2230
1895
1553
1384
1470
1809
2213
2422
2336
2046
1680
1445
1439
1709
2109
2410
2413
2175
1808
1503
1418
1587
1953
2333
2447
2271
1920
1584
1410
1507
1855
2258
2476
2392
2092
1707
1442
1435
1702
2111
2416
2432
2191
1831
1533
1450
1620
2000
2352
2468
2304
1962
1616
1447
1535
1891
2302
2514
2420
2107
1722
1470
1457
1738
2128
2420
2431
2192
1842
1552
1464
1635
2005
2370
2490
2331
1991
1648
1472
1555
1879
2267
2471
2375
2080
1727
1488
1486
1744
2143
2448
2478
2242
1898
1610
1521
1713
2107
2459
2559
2394
2047
1686
1510
1600
1928
2333
2553
2471
2176
1817
1591
1595
1850
2250
2543
2546
2292
1904
1573
1467
1627
1986
2352
2462
2289
1950
1616
1446
1532
1857
2237
2443
2364
2075
1728
1471
1466
1739
2134
2442
2458
2213
1841
1535
1440
1610
1974
2327
2432
2263
1936
1618
1490
1655
2083
2559
2880
2887
2693
2437
2314
2413
2752
3221
3604
3563
3177
2625
2102
1787
1791
2055
2346
2414
2219
1882
1519
1354
1445
1791
2193
2407
2318
2019
1660
1406
1402
1645
2064
2369
2386
2154
1792
1495
1418
1600
1968
2319
2416
2243
1902
1568
1395
1482
1819
2223
2437
2353
2064
1701
1462
1466
1728
2138
2443
2443
2203
1840
1552
1482
1677
2063
2421
2533
2363
2016
1680
1512
1603
1936
2339
2549
2467
2175
1813
1582
1581
1829
2239
2544
2559
2335
1997
1714
1637
1821
2206
2559
2672
2486
2135
1791
1633
1728
2073
2471
2678
2586
2275
1919
1685
1698
1959
2357
2641
2637
2373
1995
1694
1600
1775
2156
2496
2589
2401
2055
1698
1511
1587
1907
2288
2480
2375
2069
1699
1454
1451
1712
2109
2383
2381
2128
1747
1439
1357
1535
1936
2304
2416
2244
1918
1574
1399
1497
1840
2230
2427
2329
2028
1679
1442
1451
1716
2115
2396
2379
2128
1769
1475
1411
1611
2000
2369
2465
2288
1911
1566
1389
1468
1823
2215
2428
2336
2032
1681
1445
1435
1681
2083
2383
2387
2138
1777
1488
1422
1610
1991
2349
2450
2277
1927
1597
1434
1526
1869
2256
2448
2356
2066
1712
1473
1487
1755
2160
2449
2437
2190
1821
1520
1438
1617
1999
2353
2448
2270
1929
1607
1451
1561
1905
2304
2498
2382
2039
1668
1451
1492
1791
2195
2482
2475
2213
1840
1535
1447
1637
2031
2390
2485
2304
1950
1602
1439
1535
1898
2308
2512
2415
2107
1739
1490
1490
1765
2178
2466
2454
2210
1851
1559
1473
1651
2032
2406
2513
2347
2000
1655
1489
1599
1943
2341
2523
2406
2089
1717
1485
1513
1805
2224
2523
2527
2290
1926
1638
1571
1760
2140
2483
2559
2377
2033
1697
1533
1639
1992
2384
2559
2462
2143
1765
1512
1515
1787
2204
2489
2480
2227
1840
1533
1456
1654
2062
2427
2541
2327
1982
1643
1475
1574
1918
2306
2502
2397
2082
1712
1472
1487
1762
2167
2451
2441
2192
1814
1504
1435
1634
2016
2377
2501
2378
2123
1890
1840
2045
2496
3024
3388
3396
3151
2823
2615
2608
2798
3055
3125
2839
2370
1872
1483
1360
1535
1924
2289
2389
2213
1867
1520
1379
1500
1872
2272
2461
2333
2001
1643
1414
1439
1722
2131
2427
2422
2163
1781
1482
1408
1599
1981
2339
2435
2249
1878
1570
1419
1530
1883
2285
2470
2368
2068
1712
1486
1506
1802
2215
2509
2498
2253
1885
1591
1517
1712
2105
2447
2527
2339
1969
1639
1495
1625
1981
2383
2559
2461
2160
1814
1608
1639
1921
2326
2617
2606
2357
2003
1727
1658
1843
2230
2580
2669
2480
2135
1808
1665
1775
2118
2503
2699
2584
2269
1899
1665
1691
1969
2371
2645
2614
2338
1963
1660
1585
1778
2155
2482
2557
2350
1967
1602
1440
1558
1909
2299
2487
2375
2065
1702
1474
1491
1776
2177
2450
2422
2154
1761
1472
1405
1621
2005
2368
2446
2242
1872
1515
1361
1479
1840
2234
2425
2318
2003
1647
1413
1441
1726
2131
2410
2381
2112
1728
1431
1367
1584
1990
2356
2435
2238
1873
1535
1401
1523
1878
2280
2461
2352
2042
1691
1468
1488
1777
2181
2453
2419
2157
1786
1501
1442
1653
2067
2431
2507
2298
1923
1585
1431
1535
1895
2303
2494
2385
2078
1707
1473
1511
1811
2224
2493
2455
2182
1795
1489
1422
1631
2032
2389
2471
2272
1907
1572
1434
1579
1943
2339
2514
2394
2079
1711
1475
1494
1782
2205
2487
2465
2198
1827
1535
1481
1682
2079
2416
2485
2278
1919
1595
1447
1571
1926
2323
2505
2381
2060
1687
1457
1495
1799
2223
2496
2470
2202
1829
1535
1479
1687
2091
2445
2519
2313
1934
1588
1439
1567
1927
2325
2525
2427
2122
1754
1510
1525
1814
2213
2473
2443
2181
1820
1527
1470
1679
2078
2437
2529
2337
1989
1665
1535
1659
2033
2429
2608
2474
2140
1763
1532
1563
1853
2258
2543
2514
2259
1891
1600
1534
1747
2145
2480
2530
2306
1934
1590
1437
1557
1939
2329
2513
2383
2060
1710
1492
1535
1837
2240
2496
2444
2156
1765
1471
1422
1649
2046
2406
2479
2270
1894
1532
1377
1493
1869
2279
2480
2401
2143
1854
1726
1857
2243
2774
3190
3294
3120
2815
2585
2544
2736
3088
3312
3195
2736
2151
1647
1401
1482
1835
2222
2399
2279
1961
1599
1382
1424
1738
2159
2421
2375
2103
1733
1447
1381
1583
1990
2337
2401
2197
1839
1494
1349
1477
1845
2253
2437
2319
1999
1637
1411
1446
1750
2189
2463
2432
2162
1797
1507
1439
1648
2062
2395
2465
2260
1909
1584
1435
1557
1922
2316
2499
2382
2063
1698
1485
1535
1841
2259
2530
2496
2235
1872
1600
1535
1770
2171
2525
2611
2403
2036
1705
1563
1693
2066
2480
2672
2559
2243
1875
1658
1693
2000
2415
2691
2650
2377
2010
1743
1683
1872
2251
2559
2617
2385
2011
1673
1523
1650
2000
2381
2542
2401
2061
1687
1459
1498
1787
2211
2477
2429
2128
1743
1443
1392
1612
2002
2342
2391
2171
1796
1450
1306
1433
1806
2201
2381
2255
1931
1561
1341
1387
1706
2126
2394
2357
2077
1699
1421
1376
1598
1994
2333
2398
2182
1821
1487
1357
1498
1872
2263
2434
2309
1976
1611
1389
1423
1731
2149
2416
2375
2111
1742
1458
1408
1623
2029
2378
2452
2251
1886
1552
1408
1531
1904
2303
2482
2355
2030
1665
1452
1488
1790
2195
2458
2413
2127
1744
1472
1433
1663
2064
2398
2453
2250
1897
1569
1439
1572
1930
2315
2479
2334
2007
1662
1461
1505
1810
2213
2468
2416
2131
1751
1469
1425
1650
2059
2403
2480
2288
1935
1600
1442
1566
1930
2319
2494
2359
2026
1664
1463
1515
1823
2239
2496
2448
2167
1791
1508
1459
1688
2098
2441
2509
2303
1933
1589
1443
1584
1959
2351
2514
2384
2047
1677
1456
1489
1799
2202
2463
2416
2129
1758
1484
1444
1683
2079
2421
2485
2285
1921
1596
1457
1596
1945
2326
2486
2353
2032
1680
1488
1534
1839
2244
2505
2466
2195
1839
1582
1531
1744
2146
2480
2542
2341
1990
1675
1535
1687
2051
2433
2597
2451
2128
1773
1559
1601
1904
2306
2559
2534
2249
1875
1600
1535
1744
2134
2451
2495
2267
1890
1562
1427
1569
1936
2322
2485
2353
2031
1680
1474
1535
1857
2285
2541
2491
2212
1834
1535
1492
1713
2107
2421
2457
2224
1853
1520
1388
1522
1923
2374
2615
2557
2307
2035
1933
2101
2535
3089
3521
3601
3344
2962
2657
2512
2582
2782
2913
2777
2405
1931
1535
1367
1491
1856
2251
2417
2292
1967
1607
1392
1431
1755
2157
2409
2367
2096
1723
1434
1377
1598
1995
2331
2386
2173
1825
1503
1383
1518
1895
2277
2428
2294
1973
1632
1442
1494
1796
2190
2432
2375
2109
1738
1458
1421
1655
2075
2419
2471
2255
1899
1594
1475
1622
2000
2395
2547
2390
2043
1670
1462
1521
1841
2256
2520
2480
2211
1856
1588
1562
1805
2223
2559
2639
2421
2071
1756
1648
1793
2163
2535
2687
2541
2214
1866
1671
1726
2042
2449
2704
2645
2347
1968
1693
1655
1886
2284
2614
2651
2409
2023
1680
1529
1664
2025
2398
2534
2383
2029
1658
1453
1515
1829
2224
2467
2412
2118
1734
1444
1398
1611
2027
2371
2415
2181
1809
1471
1360
1520
1907
2310
2465
2314
1967
1590
1373
1413
1727
2137
2397
2343
2046
1667
1391
1354
1600
2019
2350
2384
2160
1789
1463
1346
1505
1899
2305
2463
2298
1953
1589
1387
1455
1797
2222
2462
2398
2107
1728
1453
1414
1648
2062
2397
2447
2223
1862
1535
1410
1535
1913
2300
2455
2320
1991
1641
1435
1495
1815
2231
2483
2423
2129
1747
1471
1442
1691
2113
2453
2501
2273
1891
1566
1441
1599
1983
2375
2527
2367
2007
1633
1426
1488
1825
2250
2493
2416
2117
1734
1467
1446
1690
2089
2411
2447
2218
1847
1517
1403
1579
1953
2339
2491
2339
1991
1643
1425
1483
1806
2214
2458
2401
2114
1744
1476
1451
1710
2110
2431
2480
2256
1893
1579
1454
1598
1958
2339
2483
2329
1999
1648
1450
1505
1827
2240
2493
2423
2128
1749
1479
1439
1680
2098
2433
2479
2253
1883
1535
1424
1573
1954
2349
2496
2341
1994
1631
1439
1505
1839
2256
2499
2432
2134
1758
1488
1472
1733
2156
2493
2535
2304
1935
1607
1483
1658
2042
2430
2579
2416
2066
1691
1495
1567
1887
2288
2530
2463
2176
1792
1520
1488
1730
2143
2470
2495
2253
1866
1535
1425
1589
1953
2366
2502
2339
1985
1619
1424
1491
1819
2235
2477
2405
2113
1738
1478
1463
1715
2128
2455
2496
2261
1875
1526
1401
1535
1915
2294
2449
2315
2006
1710
1589
1749
2173
2694
3071
3143
2960
2698
2538
2596
2870
3294
3603
3467
2986
2378
1846
1564
1609
1934
2294
2437
2285
1951
1600
1393
1447
1778
2179
2430
2366
2066
1680
1397
1362
1605
2006
2333
2363
2133
1759
1439
1330
1489
1879
2267
2416
2268
1925
1568
1380
1459
1789
2202
2446
2369
2078
1697
1434
1428
1691
2107
2418
2448
2224
1839
1527
1423
1584
1968
2358
2508
2354
2003
1643
1443
1511
1850
2257
2511
2451
2176
1814
1566
1535
1791
2203
2525
2559
2352
1997
1684
1583
1739
2128
2514
2655
2491
2154
1797
1614
1695
2035
2449
2695
2617
2306
1936
1678
1659
1903
2303
2608
2624
2365
1971
1642
1518
1671
2047
2426
2557
2384
2031
1659
1451
1505
1827
2243
2495
2427
2129
1743
1451
1410
1643
2033
2352
2384
2160
1799
1479
1361
1519
1907
2295
2431
2267
1911
1535
1347
1421
1755
2161
2404
2333
2039
1665
1383
1360
1616
2031
2352
2374
2141
1770
1449
1347
1521
1921
2311
2448
2290
1932
1563
1372
1454
1794
2198
2431
2337
2032
1662
1394
1371
1631
2042
2378
2414
2182
1810
1488
1380
1553
1945
2329
2457
2289
1936
1579
1387
1456
1785
2190
2427
2361
2079
1712
1438
1420
1677
2098
2423
2448
2208
1829
1500
1381
1535
1931
2307
2432
2261
1919
1568
1380
1462
1813
2225
2463
2385
2085
1694
1424
1418
1678
2096
2417
2422
2166
1782
1468
1370
1535
1936
2322
2467
2309
1969
1614
1415
1473
1801
2210
2448
2368
2072
1703
1433
1415
1679
2100
2421
2445
2203
1811
1510
1405
1569
1950
2329
2465
2293
1951
1600
1419
1494
1828
2240
2471
2394
2092
1712
1450
1439
1703
2128
2445
2457
2206
1822
1499
1398
1594
2000
2390
2527
2366
1998
1627
1424
1501
1842
2259
2491
2416
2125
1760
1495
1490
1773
2202
2529
2559
2323
1931
1593
1471
1636
2022
2414
2549
2387
2035
1677
1483
1552
1888
2303
2531
2452
2157
1792
1535
1522
1776
2179
2490
2512
2272
1898
1580
1456
1605
1973
2350
2483
2320
1970
1614
1424
1497
1829
2256
2499
2434
2130
1743
1473
1449
1704
2121
2444
2473
2230
1859
1535
1424
1578
1953
2327
2462
2306
1979
1679
1574
1746
2171
2655
2979
3005
2805
2535
2389
2486
2826
3313
3702
3638
3179
2553
1991
1684
1706
1997
2315
2416
2235
1874
1517
1328
1408
1750
2174
2414
2327
2023
1646
1376
1360
1627
2047
2380
2406
2161
1783
1458
1361
1535
1931
2316
2447
2277
1917
1535
1367
1456
1799
2213
2448
2373
2068
1686
1414
1395
1664
2096
2416
2433
2207
1839
1523
1427
1600
1984
2359
2480
2311
1967
1614
1436
1535
1898
2335
2586
2515
2215
1825
1562
1535
1822
2240
2550
2559
2318
1953
1648
1556
1731
2128
2512
2655
2493
2153
1806
1634
1722
2047
2463
2704
2633
2333
1963
1698
1673
1922
2345
2658
2668
2397
2014
1689
1582
1728
2122
2480
2598
2403
2032
1675
1474
1535
1877
2271
2480
2379
2067
1680
1414
1393
1654
2054
2356
2363
2123
1751
1441
1345
1520
1910
2288
2405
2240
1891
1535
1355
1436
1775
2170
2384
2302
1982
1609
1345
1335
1606
2032
2354
2368
2122
1734
1435
1351
1535
1937
2320
2435
2259
1895
1535
1349
1425
1772
2181
2390
2293
1987
1621
1379
1381
1650
2063
2368
2369
2123
1746
1438
1355
1535
1941
2326
2460
2288
1925
1573
1383
1461
1807
2222
2438
2347
2037
1676
1422
1409
1680
2102
2416
2430
2176
1794
1475
1376
1557
1957
2330
2460
2289
1941
1595
1405
1485
1843
2258
2480
2371
2066
1687
1434
1424
1694
2112
2416
2419
2167
1803
1481
1390
1577
1968
2353
2473
2286
1920
1559
1366
1450
1787
2224
2455
2370
2077
1686
1407
1418
1682
2103
2422
2434
2187
1814
1503
1412
1600
1995
2377
2496
2319
1961
1606
1425
1519
1866
2284
2498
2397
2071
1686
1443
1461
1744
2160
2460
2464
2218
1841
1529
1442
1623
2023
2410
2523
2336
1982
1633
1459
1569
1924
2339
2559
2483
2165
1786
1523
1509
1776
2195
2503
2507
2258
1885
1575
1473
1650
2034
2400
2507
2313
1947
1585
1401
1481
1829
2247
2475
2386
2074
1685
1429
1427
1703
2119
2430
2439
2203
1838
1523
1438
1623
2013
2384
2487
2299
1927
1552
1357
1446
1801
2234
2495
2464
2230
1941
1778
1859
2221
2741
3183
3299
3120
2800
2517
2422
2541
2816
3025
2926
2512
1966
1485
1245
1313
1670
2105
2335
2265
1969
1614
1380
1393
1670
2085
2384
2390
2143
1760
1444
1357
1535
1950
2322
2432
2257
1904
1535
1381
1477
1836
2245
2451
2352
2042
1673
1427
1447
1737
2159
2447
2445
2189
1813
1499
1419
1607
2000
2391
2512
2339
1983
1631
1456
1554
1889
2305
2530
2446
2144
1775
1535
1559
1830
2253
2559
2588
2343
1968
1664
1585
1775
2162
2531
2653
2485
2158
1829
1675
1776
2128
2539
2766
2681
2361
1978
1714
1717
1994
2426
2743
2736
2461
2075
1749
1649
1825
2208
2548
2650
2465
2112
1759
1581
1659
1986
2383
2559
2448
2112
1712
1455
1456
1729
2147
2432
2421
2160
1779
1456
1363
1553
1943
2307
2407
2224
1856
1503
1326
1392
1740
2161
2383
2289
1981
1607
1360
1373
1658
2059
2345
2337
2073
1685
1374
1298
1494
1904
2269
2373
2192
1826
1460
1295
1399
1760
2182
2407
2312
1993
1618
1382
1387
1668
2096
2386
2370
2108
1741
1433
1349
1527
1921
2288
2411
2239
1892
1535
1373
1469
1834
2247
2448
2343
2003
1631
1382
1398
1712
2130
2430
2419
2161
1775
1447
1361
1552
1942
2320
2430
2246
1891
1553
1393
1498
1857
2267
2469
2352
2022
1646
1388
1382
1659
2085
2386
2385
2129
1759
1461
1383
1577
1968
2342
2438
2253
1881
1520
1350
1438
1805
2224
2432
2318
1984
1627
1392
1408
1695
2119
2418
2416
2159
1776
1472
1394
1597
1989
2357
2457
2277
1921
1584
1411
1493
1843
2251
2449
2346
2029
1664
1431
1456
1747
2178
2491
2495
2239
1856
1565
1474
1664
2047
2410
2507
2330
1968
1616
1451
1535
1908
2329
2537
2432
2111
1709
1439
1441
1715
2123
2416
2385
2125
1744
1445
1369
1562
1958
2321
2421
2234
1862
1535
1378
1479
1835
2236
2431
2324
2017
1642
1400
1422
1697
2125
2414
2387
2119
1738
1434
1370
1596
2045
2493
2687
2603
2342
2099
2034
2231
2675
3187
3504
3416
3045
2593
2229
2058
2101
2285
2405
2287
1968
1564
1246
1168
1386
1819
2220
2333
2153
1802
1459
1297
1409
1782
2207
2416
2293
1958
1576
1322
1333
1634
2076
2384
2378
2109
1718
1398
1319
1520
1925
2284
2377
2198
1852
1516
1362
1477
1837
2224
2398
2266
1954
1610
1389
1414
1708
2134
2423
2403
2129
1748
1456
1397
1614
2032
2384
2474
2279
1922
1584
1413
1514
1855
2251
2448
2335
2026
1663
1439
1473
1776
2208
2510
2511
2263
1904
1615
1527
1741
2128
2501
2615
2425
2069
1727
1584
1689
2035
2435
2625
2487
2156
1775
1524
1527
1803
2193
2467
2422
2146
1750
1441
1364
1562
1955
2306
2384
2187
1824
1479
1317
1410
1775
2178
2363
2256
1934
1535
1280
1285
1566
1967
2256
2237
1968
