2864
2517
2162
1995
2113
2475
2882
3082
2922
2545
2139
1881
1901
2187
2611
2903
2853
2542
2126
1806
1732
1936
2352
2724
2813
2584
2192
1826
1667
1787
2154
2559
2774
2630
2273
1885
1664
1711
2014
2451
2758
2734
2433
2032
1722
1655
1869
2285
2656
2739
2514
2139
1790
1649
1783
2160
2580
2783
2646
2290
1904
1673
1711
2003
2431
2731
2695
2395
1984
1664
1600
1803
2206
2559
2635
2397
2003
1649
1494
1630
2000
2422
2630
2494
2154
1761
1527
1581
1897
2327
2626
2603
2303
1907
1607
1562
1786
2209
2596
2689
2474
2096
1730
1583
1698
2047
2431
2589
2407
2021
1603
1372
1441
1807
2323
2736
2827
2659
2387
2222
2291
2634
3162
3661
3777
3347
2711
2064
1600
1453
1623
1902
2020
1851
1498
1158
992
1111
1495
2019
2394
2423
2178
1824
1566
1535
1790
2232
2629
2739
2523
2146
1791
1648
1776
2157
2559
2791
2659
2318
1933
1707
1747
2059
2487
2792
2771
2477
2094
1791
1744
1967
2391
2783
2886
2681
2315
1983
1851
1993
2382
2827
3061
2941
2599
2220
1999
2058
2373
2829
3169
3159
2864
2470
2182
2133
2359
2788
3185
3286
3041
2640
2275
2112
2238
2601
3023
3233
3081
2711
2317
2077
2094
2365
2775
3070
3024
2699
2272
1936
1851
2039
2442
2807
2886
2650
2245
1887
1727
1840
2196
2607
2795
2645
2289
1895
1661
1683
1983
2411
2717
2688
2386
1998
1691
1627
1839
2257
2624
2704
2469
2081
1715
1559
1683
2055
2469
2677
2544
2205
1819
1595
1631
1931
2366
2667
2634
2333
1915
1613
1535
1742
2146
2502
2581
2349
1947
1574
1397
1505
1865
2278
2480
2341
1988
1602
1359
1386
1684
2134
2429
2414
2119
1722
1422
1362
1574
2000
2379
2470
2255
1886
1534
1392
1529
1910
2336
2550
2422
2080
1679
1410
1402
1649
2019
2275
2220
1914
1532
1275
1290
1606
2157
2694
2969
2928
2713
2522
2504
2718
3115
3517
3569
3117
2416
1702
1181
989
1135
1484
1754
1733
1473
1138
901
913
1199
1679
2114
2256
2088
1744
1418
1290
1436
1826
2256
2476
2352
2009
1627
1387
1423
1727
2174
2485
2479
2203
1815
1517
1456
1667
2086
2461
2555
2352
1982
1635
1489
1627
2007
2448
2682
2577
2256
1888
1667
1709
2006
2449
2769
2770
2505
2145
1860
1819
2035
2455
2859
2982
2783
2420
2082
1925
2034
2395
2817
3034
2909
2559
2176
1929
1940
2224
2650
2947
2925
2624
2224
1898
1809
1995
2384
2747
2829
2596
2193
1815
1642
1734
2077
2469
2669
2524
2173
1776
1511
1520
1798
2209
2496
2479
2192
1793
1485
1412
1616
2002
2384
2478
2257
1873
1514
1350
1460
1822
2227
2434
2306
1959
1563
1314
1342
1632
2064
2369
2355
2070
1673
1362
1307
1505
1936
2322
2429
2221
1837
1461
1287
1389
1735
2134
2334
2195
1837
1430
1181
1198
1479
1904
2208
2195
1907
1510
1201
1136
1345
1763
2147
2256
2053
1677
1314
1162
1280
1649
2074
2288
2164
1823
1431
1200
1234
1535
1990
2310
2291
1981
1535
1191
1072
1232
1619
1993
2113
1937
1621
1343
1278
1513
2006
2559
2926
2938
2705
2384
2143
2093
2192
2352
2357
2057
1526
951
528
397
591
1039
1493
1687
1557
1254
960
864
1037
1466
1942
2192
2106
1781
1397
1167
1197
1495
1938
2270
2263
1981
1588
1272
1212
1429
1858
2255
2361
2160
1786
1433
1281
1407
1777
2207
2439
2334
2003
1633
1398
1438
1750
2199
2534
2539
2283
1883
1601
1535
1773
2210
2618
2741
2544
2175
1813
1659
1779
2155
2583
2810
2700
2354
1966
1723
1744
2032
2463
2782
2759
2463
2063
1742
1661
1852
2256
2625
2715
2481
2080
1680
1488
1584
1930
2337
2539
2406
2054
1645
1378
1383
1671
2103
2411
2391
2096
1682
1343
1251
1437
1843
2229
2331
2126
1733
1361
1191
1301
1663
2096
2320
2205
1849
1441
1185
1199
1475
1913
2229
2223
1936
1535
1230
1166
1373
1802
2198
2304
2090
1689
1309
1139
1253
1623
2067
2279
2155
1797
1379
1108
1113
1385
1814
2122
2108
1814
1402
1081
994
1203
1631
2023
2141
1919
1535
1178
1008
1133
1509
1949
2180
2060
1712
1307
1058
1085
1389
1847
2186
2195
1920
1517
1199
1103
1271
1648
1996
2067
1833
1453
1115
998
1194
1665
2215
2559
2559
2353
2074
1911
1997
2303
2692
2891
2667
2098
1369
783
493
553
880
1264
1411
1259
946
670
589
770
1216
1718
1996
1933
1635
1277
1058
1098
1408
1861
2199
2216
1939
1535
1237
1169
1387
1817
2226
2357
2161
1783
1425
1267
1390
1765
2197
2441
2330
1995
1610
1367
1392
1687
2131
2455
2479
2223
1831
1532
1471
1690
2128
2539
2681
2485
2139
1801
1663
1791
2171
2618
2864
2769
2443
2065
1818
1838
2116
2543
2866
2863
2559
2165
1832
1741
1920
2315
2693
2800
2581
2185
1791
1590
1657
1976
2371
2590
2461
2117
1710
1439
1449
1722
2132
2432
2415
2128
1712
1389
1300
1489
1903
2283
2389
2189
1791
1407
1223
1324
1683
2121
2347
2239
1899
1491
1233
1241
1521
1959
2282
2285
1999
1591
1262
1176
1391
1815
2218
2336
2131
1749
1370
1198
1303
1665
2085
2317
2207
1870
1467
1205
1207
1475
1903
2217
2217
1936
1520
1191
1095
1291
1709
2096
2212
2011
1619
1249
1072
1173
1535
1983
2227
2129
1799
1398
1141
1158
1441
1875
2222
2230
1957
1559
1245
1181
1385
1808
2191
2288
2054
1632
1238
1051
1158
1553
2032
2347
2320
2077
1777
1618
1717
2071
2559
2945
2960
2640
2134
1619
1271
1179
1341
1553
1557
1302
901
567
443
624
1085
1615
1946
1919
1645
1291
1072
1129
1446
1914
2274
2306
2056
1667
1354
1274
1477
1907
2315
2447
2256
1875
1503
1327
1440
1820
2267
2523
2432
2106
1712
1462
1478
1773
2224
2558
2582
2313
1922
1614
1535
1760
2192
2611
2753
2559
2211
1856
1691
1799
2171
2623
2892
2811
2489
2113
1860
1875
2155
2598
2939
2960
2677
2272
1938
1845
2019
2418
2804
2923
2704
2299
1913
1721
1799
2145
2557
2787
2671
2321
1907
1650
1643
1901
2315
2631
2615
2319
1904
1566
1462
1649
2067
2474
2623
2439
2091
1745
1598
1722
2097
2534
2782
2677
2336
1933
1661
1665
1947
2377
2704
2703
2405
1984
1642
1535
1744
2168
2581
2720
2517
2144
1766
1578
1664
2001
2416
2651
2543
2199
1799
1522
1521
1792
2226
2547
2556
2271
1856
1512
1393
1562
1965
2361
2480
2282
1894
1517
1345
1456
1829
2275
2515
2414
2062
1649
1367
1360
1636
2070
2397
2414
2149
1763
1453
1373
1571
1984
2384
2503
2288
1890
1475
1265
1344
1698
2146
2416
2355
2067
1729
1535
1610
1946
2439
2832
2892
2640
2238
1859
1680
1715
1922
2108
2035
1687
1200
773
580
693
1099
1616
1951
1941
1690
1358
1152
1205
1531
2011
2379
2414
2150
1758
1425
1343
1535
1963
2371
2498
2313
1933
1557
1373
1475
1850
2293
2551
2459
2129
1732
1472
1484
1763
2191
2538
2559
2301
1906
1581
1474
1682
2097
2522
2685
2501
2130
1763
1600
1719
2097
2543
2806
2724
2394
1995
1749
1763
2058
2501
2857
2875
2594
2192
1843
1727
1889
2287
2672
2812
2622
2239
1855
1650
1715
2037
2458
2703
2592
2237
1811
1513
1490
1748
2167
2492
2495
2217
1802
1449
1328
1491
1891
2288
2418
2227
1846
1468
1281
1373
1732
2171
2412
2321
2000
1607
1342
1341
1626
2070
2406
2419
2155
1744
1405
1294
1463
1869
2273
2416
2230
1852
1485
1312
1419
1779
2219
2462
2359
2010
1584
1285
1266
1523
1966
2320
2351
2092
1680
1334
1209
1367
1758
2146
2283
2095
1714
1333
1152
1248
1609
2039
2293
2205
1849
1437
1168
1174
1446
1889
2243
2271
1994
1594
1253
1159
1347
1778
2205
2365
2181
1795
1394
1184
1246
1574
1995
2253
2175
1859
1485
1256
1296
1625
2128
2529
2608
2374
2000
1680
1586
1739
2076
2331
2253
1856
1278
762
495
562
931
1447
1789
1782
1521
1197
983
1040
1361
1857
2243
2305
2063
1668
1338
1247
1441
1872
2290
2439
2256
1877
1498
1315
1410
1781
2235
2503
2419
2084
1667
1387
1386
1665
2113
2473
2512
2263
1869
1533
1439
1648
2083
2509
2673
2506
2158
1798
1623
1725
2092
2543
2821
2749
2431
2043
1781
1788
2061
2499
2861
2894
2626
2218
1879
1774
1941
2345
2746
2882
2687
2300
1903
1687
1751
2090
2509
2765
2673
2335
1919
1617
1584
1821
2242
2559
2559
2303
1891
1535
1423
1584
1991
2398
2542
2349
1964
1568
1355
1430
1778
2212
2478
2390
2070
1678
1401
1394
1662
2099
2442
2474
2207
1790
1443
1329
1499
1916
2335
2494
2317
1946
1565
1366
1447
1783
2212
2457
2365
2027
1613
1318
1296
1558
1999
2351
2382
2112
1697
1346
1226
1382
1785
2186
2323
2146
1765
1381
1183
1269
1619
2069
2332
2256
1927
1519
1243
1235
1504
1952
2297
2323
2059
1647
1310
1202
1375
1803
2224
2383
2200
1811
1408
1177
1231
1567
2001
2277
2224
1930
1575
1351
1408
1758
2275
2692
2785
2559
2196
1853
1700
1765
1989
2178
2094
1710
1185
720
493
591
983
1519
1883
1904
1642
1298
1071
1107
1425
1923
2309
2374
2126
1733
1394
1296
1482
1904
2321
2480
2305
1929
1535
1347
1434
1778
2230
2508
2441
2129
1726
1455
1445
1712
2149
2503
2544
2288
1898
1563
1456
1647
2071
2498
2673
2506
2147
1776
1595
1698
2059
2512
2796
2723
2398
1993
1727
1723
1996
2448
2816
2863
2607
2201
1856
1743
1904
2305
2721
2865
2674
2283
1890
1670
1726
2047
2469
2715
2621
2271
1845
1535
1515
1766
2185
2517
2541
2269
1860
1506
1382
1535
1938
2339
2483
2303
1914
1515
1297
1365
1711
2149
2416
2347
2016
1603
1334
1323
1591
2030
2385
2421
2156
1749
1403
1289
1456
1872
2293
2448
2271
1886
1489
1279
1349
1686
2127
2406
2352
2035
1637
1354
1333
1590
2023
2379
2417
2159
1747
1394
1277
1447
1851
2256
2403
2215
1823
1421
1205
1271
1613
2045
2317
2241
1918
1510
1224
1200
1458
1901
2256
2299
2039
1646
1301
1184
1358
1751
2183
2345
2165
1789
1403
1203
1295
1648
2109
2384
2320
2000
1591
1296
1251
1481
1879
2199
2218
1953
1568
1251
1180
1412
1903
2410
2675
2603
2314
2011
1877
1994
2347
2751
2904
2622
2028
1347
835
654
807
1217
1598
1686
1491
1171
912
880
1119
1601
2067
2286
2162
1827
1454
1262
1338
1691
2151
2431
2367
2047
1649
1370
1357
1623
2074
2433
2481
2231
1834
1494
1391
1574
1983
2411
2583
2421
2064
1678
1477
1566
1916
2373
2661
2607
2293
1910
1648
1648
1923
2382
2756
2827
2584
2198
1862
1757
1931
2347
2783
2973
2817
2448
2077
1872
1947
2287
2717
2979
2895
2548
2131
1834
1795
2036
2451
2819
2857
2585
2167
1802
1657
1798
2181
2583
2731
2530
2142
1734
1507
1570
1893
2323
2594
2511
2183
1774
1472
1443
1697
2126
2477
2512
2251
1835
1473
1354
1511
1920
2343
2512
2345
1971
1584
1360
1421
1760
2206
2473
2395
2054
1643
1344
1311
1570
2005
2368
2416
2173
1773
1423
1299
1462
1871
2287
2450
2286
1906
1511
1296
1365
1712
2151
2421
2347
2006
1587
1286
1243
1482
1915
2263
2299
2039
1630
1273
1149
1317
1729
2159
2326
2158
1777
1379
1168
1232
1584
2031
2309
2240
1920
1511
1227
1205
1467
1919
2292
2353
2117
1715
1365
1241
1390
1766
2147
2269
2053
1642
1234
1023
1136
1531
2062
2426
2473
2268
1981
1808
1887
2240
2741
3137
3151
2738
2102
1453
1040
963
1206
1527
1659
1489
1152
835
690
835
1264
1791
2143
2139
1872
1502
1238
1235
1513
1975
2359
2430
2195
1802
1454
1328
1488
1895
2323
2499
2347
1983
1602
1387
1454
1803
2251
2538
2482
2176
1777
1491
1474
1747
2199
2559
2637
2389
1997
1654
1531
1711
2134
2579
2781
2640
2288
1917
1712
1803
2159
2625
2925
2874
2549
2151
1865
1842
2097
2535
2898
2951
2692
2286
1933
1795
1931
2323
2730
2874
2701
2315
1905
1680
1728
2047
2482
2753
2677
2337
1911
1605
1553
1777
2202
2550
2597
2330
1920
1560
1419
1574
1963
2368
2521
2348
1968
1567
1347
1415
1761
2213
2494
2422
2094
1670
1367
1334
1587
2019
2384
2434
2191
1787
1430
1296
1447
1843
2256
2422
2251
1872
1479
1267
1333
1675
2128
2417
2365
2054
1647
1347
1321
1584
2014
2377
2432
2179
1776
1418
1283
1426
1811
2212
2362
2183
1799
1392
1165
1230
1568
2011
2293
2240
1919
1507
1216
1187
1433
1875
2246
2305
2055
1649
1300
1169
1333
1744
2181
2367
2217
1853
1462
1250
1325
1664
2109
2371
2287
1920
1456
1116
1034
1264
1716
2117
2229
2069
1777
1535
1571
1877
2432
3021
3381
3321
2960
2531
2191
2017
2041
2165
2165
1886
1399
883
547
502
779
1291
1751
1904
1733
1392
1089
1002
1212
1654
2119
2335
2210
1861
1483
1279
1351
1686
2141
2427
2373
2062
1657
1371
1344
1606
2060
2427
2492
2253
1858
1504
1377
1535
1942
2384
2579
2431
2086
1712
1509
1599
1942
2407
2703
2662
2365
1978
1705
1686
1948
2405
2794
2883
2663
2284
1951
1840
2009
2416
2853
3051
2891
2517
2129
1903
1957
2281
2710
2986
2918
2592
2174
1869
1806
2032
2448
2804
2859
2587
2163
1792
1636
1775
2151
2557
2731
2547
2169
1765
1523
1584
1895
2329
2608
2531
2209
1811
1494
1455
1695
2125
2480
2531
2279
1856
1484
1335
1478
1873
2301
2481
2329
1968
1575
1344
1402
1733
2187
2454
2396
2077
1651
1343
1296
1527
1982
2356
2422
2181
1783
1423
1291
1445
1840
2272
2448
2294
1931
1535
1325
1383
1711
2143
2415
2346
2001
1577
1258
1200
1430
1867
2227
2289
2038
1636
1278
1152
1307
1712
2135
2319
2166
1806
1422
1206
1270
1616
2067
2357
2309
2000
1600
1310
1280
1533
1975
2356
2417
2173
1759
1363
1187
1279
1626
1993
2159
2000
1667
1328
1194
1362
1834
2433
2897
3024
2874
2630
2455
2480
2704
3047
3217
2976
2395
1683
1072
735
743
1072
1472
1684
1584
1278
959
819
947
1342
1857
2205
2205
1929
1535
1264
1239
1487
1934
2309
2376
2146
1754
1402
1276
1435
1843
2275
2461
2319
1962
1580
1365
1437
1782
2239
2541
2497
2202
1808
1521
1502
1767
2223
2610
2699
2469
2090
1755
1645
1812
2224
2662
2870
2734
2385
2018
1815
1887
2230
2691
2995
2959
2640
2231
1935
1893
2132
2559
2951
3024
2768
2356
1999
1854
1996
2384
2794
2964
2787
2406
1995
1754
1795
2112
2533
2803
2733
2384
1961
1648
1594
1824
2253
2622
2675
2418
2003
1637
1488
1633
2021
2443
2624
2459
2090
1682
1450
1494
1841
2259
2542
2486
2171
1757
1456
1414
1652
2094
2459
2529
2288
1879
1508
1360
1498
1887
2303
2481
2322
1951
1573
1346
1410
1750
2203
2496
2447
2137
1726
1427
1396
1648
2089
2451
2507
2253
1834
1456
1311
1443
1826
2245
2416
2255
1879
1479
1255
1313
1646
2087
2369
2313
1999
1586
1287
1260
1515
1967
2341
2414
2173
1786
1418
1286
1443
1858
2297
2496
2347
1981
1581
1331
1369
1674
2089
2334
2241
1898
1483
1207
1216
1531
2064
2535
2735
2615
2341
2121
2119
2359
2819
3263
3376
2983
2315
1590
1070
890
1066
1417
1676
1633
1357
1009
797
841
1171
1700
2145
2270
2081
1713
1382
1270
1443
1858
2291
2486
2339
1978
1589
1366
1423
1765
2225
2532
2497
2203
1799
1505
1473
1725
2170
2542
2615
2383
1981
1650
1526
1692
2101
2540
2745
2609
2257
1877
1667
1742
2091
2549
2865
2838
2539
2151
1867
1839
2096
2550
2946
3034
2797
2395
2043
1910
2061
2448
2880
3082
2914
2538
2151
1918
1969
2288
2729
3015
2944
2606
2166
1855
1797
2022
2448
2797
2843
2559
2158
1783
1629
1756
2128
2529
2702
2531
2160
1745
1503
1535
1856
2298
2583
2518
2192
1776
1462
1418
1664
2106
2471
2533
2291
1895
1535
1407
1558
1949
2372
2547
2389
2021
1617
1389
1437
1776
2229
2523
2471
2163
1746
1436
1387
1621
2055
2415
2476
2229
1822
1451
1303
1447
1837
2244
2417
2254
1868
1457
1218
1275
1611
2069
2361
2309
1991
1573
1271
1232
1479
1934
2309
2379
2125
1711
1337
1198
1348
1752
2187
2385
2246
1891
1509
1296
1366
1712
2176
2453
2383
2035
1579
1232
1164
1403
1872
2293
2431
2271
1968
1743
1738
2003
2513
3059
3357
3219
2790
2272
1839
1600
1621
1793
1872
1663
1241
785
498
495
801
1330
1807
1963
1792
1446
1142
1055
1261
1718
2191
2416
2287
1936
1562
1349
1420
1767
2237
2527
2478
2170
1761
1459
1431
1696
2151
2527
2602
2348
1954
1587
1453
1617
2032
2483
2697
2550
2202
1822
1606
1667
2001
2473
2793
2762
2459
2070
1781
1757
2015
2476
2879
2975
2747
2352
2006
1893
2061
2469
2922
3131
2957
2559
2160
1919
1969
2298
2752
3054
2983
2624
2175
1838
1769
1990
2416
2784
2832
2554
2119
1739
1573
1703
2095
2513
2698
2527
2141
1718
1469
1508
1845
2280
2559
2507
2176
1744
1417
1364
1613
2054
2432
2496
2255
1843
1486
1345
1496
1902
2342
2533
2371
1993
1584
1332
1379
1719
2181
2485
2443
2127
1707
1388
1346
1607
2065
2448
2523
2268
1859
1475
1328
1472
1875
2309
2495
2327
1934
1511
1273
1319
1649
2112
2405
2342
2005
1569
1237
1181
1429
1889
2267
2345
2099
1683
1307
1167
1328
1749
2193
2385
2237
1859
1453
1222
1282
1625
2095
2398
2355
2041
1622
1308
1263
1509
1968
2355
2411
2131
1691
1277
1117
1271
1714
2207
2475
2399
2121
1808
1671
1825
2250
2781
3175
3149
2793
2288
1805
1506
1464
1646
1831
1770
1429
972
607
486
708
1206
1759
2047
1969
1659
1296
1102
1193
1573
2064
2393
2375
2078
1676
1376
1342
1598
2061
2449
2526
2281
1874
1503
1367
1534
1958
2416
2633
2480
2110
1692
1456
1518
1863
2355
2686
2659
2340
1922
1616
1577
1833
2307
2717
2817
2595
2203
1856
1729
1903
2329
2787
2999
2846
2468
2064
1835
1893
2240
2720
3056
3018
2683
2243
1915
1839
2071
2512
2902
2982
2725
2288
1891
1716
1839
2229
2667
2847
2667
2261
1823
1570
1610
1926
2368
2653
2585
2241
1806
1469
1414
1666
2132
2526
2606
2338
1907
1520
1362
1498
1906
2359
2559
2411
2035
1627
1383
1424
1754
2215
2521
2480
2160
1734
1407
1351
1613
2064
2455
2541
2285
1865
1481
1328
1470
1883
2338
2554
2406
2019
1602
1358
1397
1740
2206
2510
2453
2126
1671
1360
1305
1535
1999
2384
2450
2196
1774
1380
1227
1371
1773
2241
2445
2286
1895
1475
1231
1280
1633
2117
2423
2374
2047
1618
1296
1250
1495
1953
2354
2438
2207
1791
1407
1242
1387
1807
2259
2454
2281
1877
1450
1200
1259
1621
2138
2499
2512
2254
1902
1664
1685
1991
2512
2955
3049
2768
2270
1730
1341
1243
1430
1744
1843
1637
1261
897
740
885
1325
1894
2291
2311
2032
1653
1375
1372
1648
2127
2530
2627
2380
1967
1597
1456
1624
2046
2502
2714
2559
2192
1782
1535
1593
1929
2401
2718
2678
2362
1934
1616
1569
1814
2283
2688
2784
2545
2148
1780
1643
1804
2227
2679
2901
2761
2399
2000
1776
1841
2192
2673
3003
2975
2662
2239
1931
1889
2147
2599
2989
3056
2778
2335
1938
1771
1905
2306
2747
2943
2769
2375
1949
1701
1741
2064
2512
2815
2754
2417
1975
1635
1563
1791
2229
2602
2669
2404
1975
1599
1425
1561
1959
2389
2585
2418
2033
1616
1372
1412
1755
2230
2545
2493
2162
1724
1399
1350
1605
2063
2449
2527
2285
1865
1488
1346
1493
1907
2355
2548
2389
2000
1588
1345
1397
1744
2218
2519
2474
2145
1712
1397
1351
1603
2063
2449
2529
2281
1859
1469
1301
1443
1843
2287
2471
2303
1909
1476
1228
1264
1599
2069
2387
2359
2045
1618
1293
1231
1471
1926
2325
2411
2166
1750
1394
1218
1363
1777
2230
2435
2294
1919
1499
1263
1319
1668
2141
2449
2388
2054
1593
1239
1152
1374
1830
2240
2351
2151
1787
1474
1395
1631
2122
2638
2905
2803
2448
2028
1730
1648
1775
1997
2083
1853
1407
919
594
571
859
1419
1919
2096
1919
1566
1233
1136
1328
1780
2246
2471
2333
1967
1572
1331
1392
1735
2203
2512
2473
2160
1743
1430
1385
1629
2081
2471
2544
2313
1909
1552
1406
1559
1970
2419
2639
2496
2139
1749
1525
1590
1927
2391
2709
2689
2391
1998
1696
1663
1904
2352
2750
2849
2630
2250
1897
1760
1909
2299
2727
2913
2758
2384
1982
1745
1788
2101
2530
2822
2768
2459
2022
1703
1637
1855
2271
2640
2703
2453
2045
1670
1494
1619
1984
2393
2559
2415
2035
1622
1382
1418
1732
2175
2463
2410
2096
1670
1357
1305
1535
1982
2365
2448
2219
1815
1450
1295
1429
1823
2245
2441
2293
1919
1515
1274
1314
1648
2084
2386
2352
2047
1647
1350
1309
1535
1989
2368
2443
2201
1795
1415
1255
1391
1780
2207
2391
2234
1854
1435
1194
1227
1535
1991
2291
2250
1934
1510
1202
1157
1403
1847
2231
2305
2069
1661
1290
1136
1275
1680
2123
2327
2185
1809
1407
1170
1222
1555
2010
2322
2289
1982
1574
1269
1214
1437
1857
2214
2261
2003
1600
1246
1134
1328
1783
2279
2552
2490
2207
1891
1735
1845
2192
2637
2879
2705
2188
1518
945
679
763
1121
1475
1581
1393
1072
801
756
993
1472
1968
2225
2125
1812
1437
1226
1297
1647
2112
2426
2393
2096
1685
1381
1338
1585
2032
2409
2503
2285
1894
1535
1408
1564
1951
2393
2595
2455
2112
1722
1495
1555
1894
2357
2674
2647
2352
1955
1666
1635
1889
2343
2739
2833
2619
2235
1891
1767
1920
2324
2768
2983
2835
2478
2092
1856
1904
2225
2671
2966
2910
2587
2162
1847
1792
2011
2448
2825
2890
2632
2215
1829
1661
1775
2142
2544
2711
2533
2142
1724
1461
1491
1809
2254
2544
2490
2175
1749
1427
1363
1598
2033
2419
2495
2256
1858
1484
1334
1471
1866
2282
2451
2303
1931
1522
1295
1344
1677
2129
2432
2389
2071
1654
1340
1280
1505
1944
2326
2410
2176
1774
1415
1279
1417
1808
2231
2416
2258
1881
1472
1238
1296
1643
2110
2417
2386
2096
1687
1379
1334
1581
2007
2382
2450
2216
1810
1441
1287
1415
1797
2213
2390
2238
1867
1457
1228
1265
1586
2031
2335
2298
1993
1601
1296
1251
1491
1934
2315
2388
2157
1761
1402
1263
1408
1815
2250
2448
2311
1949
1566
1335
1393
1723
2176
2474
2424
2109
1674
1333
1253
1475
1909
2305
2406
2215
1872
1580
1497
1728
2207
2704
2976
2890
2559
2175
1889
1808
1927
2113
2135
1847
1329
809
446
396
675
1202
1710
1902
1763
1449
1146
1059
1257
1710
2176
2407
2287
1936
1555
1328
1392
1734
2195
2505
2463
2151
1741
1425
1387
1639
2107
2502
2602
2365
1958
1599
1451
1613
2021
2470
2679
2537
2173
1776
1555
1631
1984
2462
2785
2765
2458
2058
1761
1727
1986
2450
2866
2974
2745
2363
2011
1884
2044
2455
2915
3138
2977
2595
2181
1937
1973
2292
2752
3067
3021
2686
2256
1933
1868
2093
2508
2883
2951
2684
2256
1869
1699
1819
2195
2613
2788
2615
2215
1788
1527
1564
1868
2327
2622
2559
2235
1808
1487
1425
1659
2094
2465
2535
2291
1878
1495
1342
1481
1878
2318
2510
2352
1959
1567
1325
1366
1695
2150
2447
2394
2079
1663
1335
1279
1511
1958
2347
2419
2176
1766
1392
1248
1398
1808
2254
2454
2314
1950
1554
1327
1381
1723
2185
2487
2443
2122
1691
1359
1289
1507
1946
2307
2373
2127
1707
1321
1159
1309
1701
2140
2345
2198
1835
1424
1191
1235
1577
2034
2352
2314
1999
1584
1269
1219
1456
1904
2301
2395
2171
1774
1406
1264
1411
1822
2249
2427
2237
1822
1369
1086
1107
1438
1923
2284
2309
2080
1760
1560
1620
1968
2514
3019
3203
3002
2583
2131
1805
1681
1785
1955
1936
1626
1150
706
475
562
959
1520
1925
1968
1725
1355
1101
1103
1387
1877
2295
2391
2169
1758
1386
1232
1382
1793
2244
2455
2322
1963
1562
1325
1372
1713
2176
2491
2463
2157
1742
1429
1392
1651
2111
2513
2619
2384
1991
1630
1483
1637
2047
2499
2730
2607
2256
1872
1659
1726
2075
2545
2866
2842
2538
2138
1837
1805
2062
2512
2914
3013
2769
2359
1984
1826
1957
2346
2775
2967
2802
2415
1993
1742
1776
2090
2530
2828
2778
2448
2005
1674
1600
1812
2239
2607
2672
2411
1986
1610
1441
1583
1975
2415
2618
2458
2091
1677
1421
1451
1767
2222
2512
2463
2142
1717
1395
1346
1591
2031
2415
2491
2246
1829
1447
1294
1437
1840
2282
2478
2321
1950
1520
1269
1308
1638
2096
2401
2368
2056
1649
1339
1295
1535
1990
2381
2463
2224
1816
1446
1299
1449
1856
2289
2487
2331
1943
1520
1255
1280
1605
2045
2350
2294
1974
1535
1231
1178
1424
1878
2277
2365
2128
1724
1349
1201
1341
1747
2191
2397
2250
1878
1472
1237
1296
1637
2106
2415
2384
2065
1651
1330
1277
1507
1936
2289
2325
2035
1587
1197
1050
1223
1693
2221
2522
2501
2265
2005
1914
2111
2559
3146
3559
3473
2991
2321
1683
1296
1253
1488
1735
1733
1447
1042
700
598
805
1310
1839
2122
2023
1699
1338
1137
1218
1579
2069
2402
2377
2064
1660
1344
1296
1535
2000
2402
2493
2259
1866
1490
1341
1485
1894
2345
2559
2426
2073
1673
1439
1493
1840
2311
2640
2619
2320
1902
1619
1586
1840
2307
2722
2829
2609
2215
1854
1723
1889
2320
2775
3005
2868
2512
2127
1901
1957
2288
2755
3088
3044
2716
2286
1965
1899
2131
2559
2953
3028
2773
2352
1968
1797
1918
2304
2734
2914
2747
2356
1927
1666
1693
2000
2445
2736
2683
2352
1915
1585
1519
1744
2176
2546
2624
2366
1952
1575
1408
1535
1936
2367
2557
2401
2023
1611
1357
1392
1723
2176
2478
2436
2126
1705
1391
1341
1584
2025
2414
2480
2234
1819
1443
1295
1434
1840
2286
2496
2354
1987
1583
1342
1392
1731
2201
2512
2480
2165
1743
1427
1379
1617
2055
2421
2482
2221
1785
1390
1219
1354
1755
2192
2383
2225
1851
1429
1199
1251
1597
2069
2384
2348
2026
1602
1283
1232
1475
1935
2327
2416
2185
1781
1413
1273
1428
1853
2306
2513
2370
1979
1535
1278
1285
1559
1996
2278
2234
1930
1535
1296
1326
1671
2245
2784
3009
2896
2619
2357
2277
2418
2751
3023
2954
2477
1793
1125
697
621
886
1351
1712
1744
1507
1168
930
951
1264
1781
2230
2357
2158
1785
1417
1280
1437
1852
2298
2505
2363
1997
1595
1361
1423
1770
2237
2551
2519
2222
1808
1488
1444
1690
2143
2534
2623
2391
1996
1645
1497
1665
2089
2544
2759
2624
2265
1872
1651
1722
2070
2542
2875
2853
2545
2144
1845
1809
2071
2537
2955
3057
2819
2410
2042
1899
2039
2442
2883
3091
2928
2538
2119
1866
1904
2224
2675
2977
2921
2559
2141
1807
1733
1955
2382
2749
2802
2529
2103
1712
1535
1669
2071
2499
2692
2519
2133
1707
1441
1472
1792
2240
2533
2475
2155
1727
1407
1351
1591
2033
2418
2486
2241
1828
1449
1302
1453
1855
2282
2469
2313
1929
1514
1274
1326
1663
2129
2438
2402
2096
1683
1382
1331
1578
2015
2397
2463
2221
1806
1424
1269
1411
1813
2246
2434
2271
1880
1454
1196
1232
1535
1999
2295
2251
1931
1506
1199
1146
1392
1844
2224
2303
2063
1649
1281
1140
1295
1713
2160
2355
2203
1855
1456
1227
1281
1622
2094
2405
2368
2047
1606
1277
1189
1390
1801
2154
2207
1962
1584
1261
1189
1433
1955
2510
2837
2803
2531
2219
2042
2109
2387
2715
2779
2425
1792
1098
588
398
551
991
1415
1554
1387
1072
794
736
959
1435
1935
2182
2073
1737
1360
1151
1229
1586
2047
2368
2335
2046
1626
1319
1281
1534
1994
2385
2467
2230
1817
1449
1315
1471
1893
2337
2545
2406
2041
1643
1413
1472
1838
2303
2624
2593
2288
1881
1585
1556
1821
2292
2704
2811
2592
2210
1872
1752
1915
2333
2791
3001
2861
2485
2095
1855
1905
2241
2693
3007
2956
2628
2199
1877
1820
2042
2469
2833
2887
2611
2187
1799
1627
1746
2127
2529
2702
2514
2126
1709
1459
1504
1831
2278
2555
2487
2155
1718
1384
1325
1571
1998
2368
2429
2173
1747
1361
1207
1349
1757
2187
2370
2218
1841
1442
1219
1280
1621
2079
2378
2319
1990
1568
1247
1204
1456
1909
2304
2383
2141
1735
1370
1232
1391
1795
2231
2414
2251
1866
1452
1217
1269
1601
2059
2339
2285
1949
1509
1202
1152
1388
1827
2199
2267
2027
1616
1250
1112
1267
1686
2125
2306
2155
1777
1377
1148
1207
1553
2014
2321
2277
1968
1535
1242
1200
1456
1921
2310
2383
2134
1726
1309
1136
1261
1659
2095
2298
2170
1847
1510
1363
1520
1958
2523
2929
2966
2714
2335
2027
1936
2067
2310
2431
2220
1714
1107
622
416
560
994
1502
1775
1699
1405
1095
949
1082
1475
1984
2321
2301
2002
1600
1323
1296
1571
2031
2425
2506
2274
1867
1507
1376
1535
1967
2414
2610
2448
2087
1700
1473
1535
1889
2358
2679
2647
2337
1936
1642
1615
1867
2350
2758
2855
2633
2245
1904
1790
1962
2387
2859
3094
2949
2590
2203
1989
2071
2428
2910
3234
3181
2832
2397
2085
2034
2294
2752
3152
3219
2949
2519
2139
1973
2112
2495
2928
3119
2925
2510
2085
1826
1867
2191
2640
2928
2861
2512
2083
1751
1691
1921
2354
2725
2787
2524
2112
1741
1601
1748
2155
2579
2767
2603
2224
1829
1618
1680
2015
2467
2767
2705
2375
1955
1648
1610
1856
2295
2670
2729
2467
2063
1691
1555
1719
2139
2582
2770
2613
2240
1837
1602
1658
1989
2441
2740
2688
2361
1941
1639
1600
1840
2275
2647
2703
2429
2005
1635
1484
1632
2027
2454
2640
2480
2121
1728
1506
1589
1938
2402
2701
2640
2316
1899
1600
1567
1823
2281
2671
2737
2493
2098
1743
1611
1764
2166
2593
2769
2590
2182
1762
1503
1556
1897
2364
2693
2694
2434
2096
1861
1901
2214
2721
3170
3287
3038
2608
2206
1978
1958
2141
2320
2292
1970
1498
1062
838
942
1358
1904
2291
2322
2083
1732
1488
1503
1806
2297
2704
2797
2555
2166
1812
1693
1866
2281
2725
2919
2759
2391
2000
1787
1853
2192
2645
2941
2882
2559
2159
1863
1837
2098
2547
2935
3011
2766
2363
2019
1906
2090
2511
2962
3181
3017
2646
2263
2054
2133
2496
2985
3323
3285
2950
2542
2256
2229
2480
2943
3358
3438
3153
2725
2355
2224
2375
2781
3221
3410
3213
2795
2381
2146
2190
2501
2940
3233
3155
2803
2356
2033
1975
2204
2623
2978
3024
2750
2320
1942
1799
1942
2334
2746
2912
2735
2347
1939
1712
1771
2108
2551
2842
2778
2448
2032
1731
1703
1949
2390
2762
2826
2559
2169
1821
1699
1861
2276
2700
2873
2691
2301
1904
1691
1765
2107
2551
2841
2777
2455
2042
1749
1722
1973
2417
2797
2859
2603
2190
1835
1703
1856
2249
2657
2818
2629
2234
1819
1586
1629
1947
2387
2672
2610
2292
1887
1584
1535
1789
2235
2611
2670
2412
2000
1648
1517
1679
2101
2512
2693
2530
2171
1777
1561
1631
1981
2443
2742
2689
2368
1951
1648
1599
1821
2231
2559
2600
2332
1937
1616
1535
1761
2227
2733
2992
2898
2588
2256
2093
2188
2517
2928
3113
2832
2247
1578
1047
849
1004
1421
1815
1920
1730
1392
1117
1066
1299
1780
2266
2490
2367
2025
1658
1456
1535
1889
2347
2640
2587
2271
1872
1587
1570
1838
2288
2659
2717
2460
2062
1707
1582
1731
2146
2579
2764
2608
2248
1856
1648
1729
2082
2535
2829
2773
2455
2064
1790
1783
2064
2515
2913
2989
2736
2352
2017
1909
2089
2501
2945
3143
2976
2599
2201
1977
2039
2367
2804
3089
3007
2662
2236
1921
1872
2112
2530
2885
2925
2653
2240
1867
1727
1872
2258
2662
2815
2624
2224
1817
1583
1635
1954
2388
2655
2559
2238
1817
1516
1482
1740
2170
2528
2559
2313
1902
1535
1414
1581
1975
2393
2559
2386
2007
1611
1390
1455
1778
2225
2487
2416
2091
1671
1378
1357
1619
2074
2435
2480
2225
1820
1463
1344
1503
1907
2321
2483
2306
1918
1515
1284
1335
1662
2098
2353
2270
1930
1495
1191
1154
1408
1847
2208
2255
1988
1573
1216
1095
1266
1681
2106
2268
2090
1699
1297
1089
1168
1519
1969
2259
2202
1886
1479
1200
1173
1440
1885
2240
2256
1950
1488
1090
931
1083
1497
1947
2163
2055
1747
1447
1344
1535
2000
2559
2957
2973
2683
2254
1870
1660
1655
1809
1916
1769
1377
896
528
418
630
1120
1648
1911
1821
1498
1157
995
1117
1499
1983
2287
2233
1914
1497
1235
1227
1493
1950
2318
2359
2106
1687
1359
1247
1418
1838
2257
2425
2259
1894
1511
1311
1392
1747
2199
2478
2416
2106
1694
1424
1417
1695
2148
2513
2579
2342
1967
1648
1554
1737
2155
2583
2755
2598
2238
1872
1687
1777
2126
2553
2832
2752
2430
2032
1757
1737
1982
2416
2759
2785
2511
2103
1738
1606
1751
2142
2534
2679
2483
2103
1703
1472
1534
1857
2273
2521
2429
2093
1665
1366
1335
1580
2004
2337
2367
2103
1703
1359
1239
1413
1813
2218
2362
2173
1792
1397
1200
1280
1626
2065
2326
2254
1925
1514
1230
1207
1462
1903
2251
2293
2032
1635
1293
1190
1360
1763
2177
2329
2160
1792
1422
1227
1310
1650
2086
2324
2246
1904
1490
1200
1165
1392
1808
2137
2159
1888
1481
1142
1023
1191
1593
1997
2154
1978
1614
1232
1038
1120
1461
1905
2174
2103
1780
1381
1109
1103
1385
1821
2180
2224
1968
1577
1242
1134
1296
1689
2079
2190
1962
1527
1099
873
949
1318
1822
2173
2194
1990
1735
1601
1726
2126
2689
3159
3248
2941
2425
1875
1462
1309
1425
1630
1631
1360
954
588
423
560
971
1502
1855
1853
1588
1243
1019
1049
1344
1811
2185
2245
2001
1616
1283
1188
1364
1780
2194
2342
2171
1794
1424
1232
1313
1663
2105
2367
2290
1971
1585
1311
1299
1574
2006
2364
2411
2174
1799
1479
1392
1584
2000
2427
2597
2434
2095
1735
1557
1653
2007
2459
2742
2683
2369
1986
1723
1722
1989
2431
2783
2829
2559
2176
1840
1732
1902
2298
2706
2857
2667
2288
1891
1676
1735
2054
2466
2711
2622
2282
1867
1577
1526
1775
2183
2512
2535
2256
1845
1487
1361
1523
1918
2320
2462
2284
1900
1507
1302
1367
1700
2130
2384
2296
1957
1554
1269
1258
1519
1951
2311
2345
2089
1687
1346
1234
1402
1798
2198
2345
2165
1791
1407
1215
1304
1658
2102
2357
2283
1958
1558
1276
1263
1521
1961
2307
2342
2086
1679
1324
1202
1357
1749
2137
2274
2083
1696
1299
1099
1168
1511
1952
2209
2130
1803
1407
1136
1135
1402
1851
2203
2243
1975
1584
1245
1143
1325
1741
2159
2311
2143
1776
1394
1187
1287
1647
2073
2318
2203
1838
1382
1061
1007
1262
1721
2112
2203
2010
1701
1471
1490
1794
2320
2864
3146
3039
2683
2257
1925
1776
1830
1973
1984
1717
1258
779
487
485
798
1319
1770
1897
1712
1373
1091
1030
1249
1705
2151
2330
2175
1811
1441
1259
1357
1722
2177
2448
2372
2042
1646
1361
1359
1635
2089
2443
2480
2221
1829
1489
1392
1584
1999
2418
2594
2417
2061
1685
1494
1595
1967
2418
2704
2638
2319
1930
1670
1679
1968
2427
2801
2854
2597
2193
1858
1759
1946
2371
2799
2962
2779
2398
2000
1796
1872
2226
2670
2931
2839
2493
2078
1776
1755
2006
2447
2787
2803
2509
2082
1715
1587
1742
2135
2535
2682
2482
2096
1691
1472
1535
1873
2304
2559
2463
2122
1702
1405
1387
1650
2085
2431
2451
2176
1759
1405
1285
1459
1875
2292
2445
2256
1865
1460
1254
1339
1682
2150
2410
2320
1985
1570
1284
1268
1535
1989
2350
2378
2112
1705
1355
1245
1423
1849
2273
2439
2266
1886
1494
1291
1373
1718
2149
2387
2291
1942
1524
1233
1217
1485
1926
2279
2309
2034
1621
1265
1152
1331
1758
2187
2346
2170
1789
1395
1203
1295
1655
2109
2375
2297
1962
1563
1286
1284
1575
2033
2404
2451
2182
1759
1390
1245
1374
1744
2125
2251
2067
1697
1344
1202
1365
1837
2385
2778
2815
2587
2273
2074
2098
2349
2688
2847
2587
1999
1297
741
491
591
989
1449
1668
1555
1249
944
818
974
1398
1911
2228
2187
1887
1507
1235
1243
1535
2017
2395
2433
2176
1776
1429
1327
1515
1941
2369
2532
2354
1970
1584
1383
1472
1845
2314
2597
2517
2199
1802
1527
1531
1815
2282
2654
2704
2448
2033
1724
1639
1839
2277
2718
2890
2718
2352
1979
1794
1898
2271
2729
3012
2939
2602
2190
1904
1889
2159
2607
2966
3007
2736
2319
1958
1840
2004
2414
2823
2963
2752
2341
1931
1706
1766
2099
2519
2765
2669
2306
1873
1559
1523
1789
2237
2559
2597
2306
1872
1506
1385
1563
1970
2372
2503
2307
1918
1515
1310
1391
1745
2192
2458
2368
2030
1616
1325
1312
1589
2047
2399
2416
2129
1691
1323
1202
1377
1804
2237
2403
2224
1847
1456
1250
1338
1708
2162
2427
2341
2001
1598
1311
1298
1575
2021
2379
2398
2111
1679
1321
1200
1365
1776
2185
2335
2146
1745
1369
1168
1259
1621
2074
2335
2240
1898
1474
1195
1187
1471
1933
2292
2323
2059
1642
1295
1199
1398
1835
2292
2463
2288
1902
1506
1291
1360
1690
2106
2322
2193
1826
1408
1140
1168
1510
2033
2477
2604
2425
2111
1843
1814
2047
2490
2895
2976
2625
2007
1338
862
748
976
1373
1635
1581
1280
919
716
784
1136
1669
2095
2176
1937
1558
1245
1168
1383
1829
2270
2439
2263
1879
1488
1296
1396
1778
2240
2523
2439
2096
1677
1392
1389
1678
2143
2507
2554
2294
1911
1558
1457
1659
2095
2514
2685
2507
2150
1789
1611
1715
2089
2545
2829
2753
2426
2025
1765
1777
2072
2535
2910
2949
2686
2277
1930
1824
2005
2431
2859
3002
2790
2387
1991
1791
1872
2222
2662
2911
2800
2433
1999
1686
1648
1906
2334
2671
2675
2373
1917
1572
1443
1615
2029
2441
2559
2371
1965
1535
1328
1398
1761
2191
2445
2341
1996
1584
1305
1296
1579
2032
2389
2421
2159
1743
1396
1289
1468
1887
2300
2442
2242
1853
1451
1257
1344
1714
2166
2423
2332
1989
1571
1281
1273
1563
2021
2383
2404
2131
1725
1377
1274
1455
1871
2267
2414
2197
1782
1360
1142
1229
1561
2039
2304
2203
1857
1430
1151
1142
1435
1903
2255
2269
1981
1560
1209
1104
1295
1727
2151
2301
2118
1733
1349
1163
1264
1643
2103
2369
2288
1951
1522
1232
1209
1470
1908
2240
2241
1954
1523
1191
1109
1341
1835
2321
2536
2415
2092
1761
1626
1776
2178
2646
2891
2707
2186
1510
975
756
881
1264
1595
1628
1381
1037
763
747
1023
1535
2045
2243
2084
1718
1355
1181
1298
1691
2162
2443
2359
2027
1615
1344
1347
1639
2112
2474
2501
2228
1813
1471
1371
1566
1984
2403
2559
2375
1997
1617
1428
1535
1927
2387
2671
2603
2275
1878
1616
1621
1914
2370
2737
2774
2507
2115
1785
1697
1902
2339
2783
2943
2753
2362
1968
1776
1872
2235
2682
2930
2828
2477
2047
1755
1730
1996
2438
2785
2800
2512
2087
1717
1597
1759
2167
2559
2715
2496
2083
1664
1445
1521
1885
2318
2559
2449
2096
1664
1363
1345
1621
2081
2432
2460
2183
1774
1413
1306
1495
1922
2346
2489
2290
1898
1502
1303
1397
1774
2226
2487
2392
2039
1613
1321
1318
1610
2079
2443
2464
2176
1745
1391
1280
1471
1903
2322
2471
2282
1890
1500
1300
1394
1767
2221
2475
2372
2015
1591
1287
1265
1535
1997
2347
2359
2064
1644
1294
1187
1370
1802
2233
2385
2195
1808
1421
1227
1325
1697
2146
2399
2304
1963
1553
1265
1268
1575
2032
2387
2416
2139
1725
1377
1279
1461
1872
2257
2368
2151
1746
1364
1185
1309
1721
2222
2544
2522
2260
1919
1715
1776
2111
2577
2930
2889
2449
1810
1200
859
882
1218
1605
1763
1597
1266
947
844
1021
1472
1999
2320
2269
1968
1590
1339
1356
1663
2146
2505
2534
2257
1842
1491
1394
1600
2027
2449
2605
2416
2033
1659
1468
1582
1954
2418
2694
2610
2274
1873
1611
1627
1925
2400
2770
2815
2544
2154
1817
1729
1935
2374
2807
2973
2791
2414
2043
1865
1973
2352
2817
3095
3000
2651
2243
1968
1963
2233
2676
3025
3035
2736
2309
1950
1840
2005
2413
2817
2951
2740
2341
1942
1744
1832
2183
2618
2851
2730
2362
1931
1648
1633
1899
2334
2667
2662
2369
1941
1584
1463
1649
2066
2480
2619
2416
2016
1621
1415
1506
1870
2317
2559
2474
2128
1711
1429
1424
1709
2160
2499
2511
2231
1811
1467
1362
1535
1968
2381
2512
2316
1922
1535
1344
1446
1819
2269
2519
2430
2096
1681
1402
1392
1674
2128
2479
2499
2223
1781
1424
1306
1482
1890
2291
2417
2209
1814
1421
1223
1317
1678
2112
2359
2258
1913
1503
1231
1229
1511
1962
2304
2313
2031
1619
1278
1179
1373
1805
2223
2364
2179
1803
1423
1230
1323
1680
2112
2330
2194
1809
1365
1075
1072
1365
1854
2247
2325
2130
1811
1580
1571
1847
2347
2829
3013
2813
2367
1844
1419
1231
1318
1535
1657
1463
1098
705
481
553
912
1455
1889
1984
1775
1418
1136
1088
1323
1782
2215
2363
2179
1799
1423
1235
1341
1716
2174
2431
2336
2007
1587
1323
1329
1624
2083
2427
2448
2179
1776
1451
1372
1598
2025
2448
2607
2416
2047
1683
1498
1605
1962
2431
2688
2608
2281
1885
1627
1648
1955
2431
2799
2834
2559
2174
1840
1745
1941
2366
2777
2909
2706
2320
1933
1742
1835
2189
2622
2862
2751
2395
1984
1703
1695
1965
2397
2727
2720
2419
1994
1633
1513
1685
2095
2478
2602
2384
1985
1594
1391
1481
1855
2286
2513
2406
2046
1631
1346
1340
1629
2064
2398
2406
2128
1712
1375
1279
1459
1875
2289
2425
2234
1841
1457
1275
1371
1732
2167
2407
2299
1949
1531
1250
1245
1524
1982
2327
2347
2074
1664
1331
1239
1430
1861
2267
2399
2203
1806
1429
1243
1341
1704
2136
2367
2249
1890
1472
1189
1186
1463
1919
2256
2262
1983
1569
1227
1134
1325
1746
2162
2298
2105
1712
1326
1137
1235
1614
2064
2320
2227
1895
1493
1245
1269
1570
2009
2339
2338
2047
1615
1270
1146
1302
1691
2079
2205
2017
1661
1327
1209
1392
1860
2406
2765
2768
2523
2211
1999
2016
2254
2559
2687
2414
1851
1214
720
529
689
1112
1584
1792
1680
1372
1074
958
1120
1535
2032
2320
2257
1951
1573
1323
1338
1639
2094
2434
2450
2181
1778
1446
1360
1574
1994
2406
2541
2351
1974
1606
1417
1525
1904
2359
2613
2515
2192
1802
1552
1574
1871
2330
2687
2707
2439
2055
1735
1666
1886
2323
2750
2895
2704
2335
1982
1818
1938
2320
2784
3053
2960
2627
2229
1971
1967
2246
2679
3022
3024
2734
2310
1966
1856
2032
2443
2833
2959
2741
2337
1946
1750
1840
2191
2613
2843
2719
2354
1937
1639
1625
1894
2318
2635
2630
2331
1927
1597
1494
1683
2102
2496
2624
2415
2021
1634
1438
1529
1882
2311
2544
2442
2106
1700
1432
1431
1719
2160
2487
2503
2230
1819
1485
1386
1579
1983
2382
2511
2318
1935
1559
1379
1488
1855
2289
2527
2430
2098
1702
1447
1456
1744
2192
2517
2515
2235
1814
1463
1360
1535
1961
2348
2458
2245
1840
1437
1247
1345
1718
2166
2416
2310
1968
1584
1305
1311
1603
2062
2397
2406
2127
1715
1382
1297
1499
1931
2341
2468
2281
1903
1526
1353
1456
1831
2263
2483
2346
1952
1490
1180
1155
1445
1919
2293
2368
2178
1882
1677
1734
2068
2623
3182
3458
3325
2921
2477
2141
1990
2061
2195
2185
1878
1406
923
634
645
967
1503
1935
2027
1819
1467
1191
1153
1406
1866
2305
2455
2275
1893
1520
1339
1447
1823
2271
2512
2415
2080
1680
1425
1450
1749
2207
2549
2559
2295
1890
1570
1482
1695
2131
2541
2687
2490
2123
1754
1587
1708
2091
2544
2811
2721
2399
2015
1775
1799
2110
2559
2930
2957
2689
2299
1988
1923
2135
2559
2977
3120
2896
2498
2122
1937
2037
2401
2835
3079
2951
2591
2176
1904
1904
2189
2619
2950
2933
2631
2199
1853
1746
1920
2333
2720
2831
2608
2193
1795
1591
1679
2031
2453
2692
2580
2231
1825
1535
1535
1818
2258
2590
2593
2302
1875
1531
1433
1631
2047
2451
2559
2367
1968
1584
1395
1497
1865
2303
2535
2427
2076
1664
1394
1405
1696
2139
2465
2470
2190
1785
1451
1371
1578
2002
2420
2556
2354
1966
1597
1410
1521
1900
2343
2581
2467
2123
1703
1419
1411
1691
2127
2445
2433
2139
1717
1373
1283
1483
1909
2310
2425
2224
1830
1456
1278
1392
1770
2198
2438
2334
1993
1599
1338
1354
1655
2112
2447
2460
2189
1792
1459
1383
1584
1987
2358
2437
2189
1744
1336
1147
1265
1671
2174
2480
2460
2229
1955
1829
1968
2398
2977
3447
3497
3147
2591
2026
1630
1500
1648
1839
1808
1507
1081
705
560
726
1183
1731
2064
2033
1752
1399
1187
1245
1577
2054
2394
2413
2145
1742
1424
1351
1570
2000
2413
2543
2352
1962
1586
1409
1521
1904
2346
2583
2480
2146
1751
1503
1531
1841
2304
2650
2661
2382
1984
1671
1606
1819
2258
2672
2804
2615
2247
1898
1741
1872
2258
2720
2978
2879
2544
2157
1904
1930
2236
2690
3024
3027
2729
2322
1991
1907
2112
2530
2941
3062
2839
2437
2047
1861
1955
2305
2733
2945
2807
2433
2013
1740
1735
2002
2431
2746
2727
2415
1985
1639
1533
1717
2127
2509
2621
2397
1997
1613
1424
1530
1891
2320
2544
2423
2071
1662
1393
1411
1708
2155
2485
2479
2189
1754
1430
1348
1535
1971
2369
2480
2257
1855
1463
1281
1392
1783
2208
2443
2341
2001
1610
1346
1365
1670
2115
2442
2438
2160
1749
1424
1344
1535
1958
2339
2434
2211
1806
1407
1215
1313
1680
2111
2336
2210
1853
1442
1193
1213
1510
1966
2298
2294
2009
1605
1282
1204
1413
1851
2255
2379
2177
1794
1424
1264
1391
1783
2225
2455
2349
1991
1568
1275
1249
1491
1895
2193
2192
1909
1535
1264
1258
1556
2096
2622
2869
2791
2525
2262
2155
2267
2559
2846
2823
2391
1754
1105
671
573
796
1235
1601
1655
1437
1104
854
849
1130
1622
2087
2256
2097
1744
1398
1254
1387
1777
2232
2470
2362
2016
1618
1363
1387
1693
2155
2480
2480
2209
1802
1477
1409
1627
2067
2480
2598
2413
2033
1671
1507
1637
2021
2480
2730
2624
2289
1904
1663
1703
2026
2493
2848
2864
2591
2195
1899
1842
2075
2521
2949
3088
2873
2485
2121
1941
2057
2422
2868
3114
2977
2618
2208
1936
1945
2238
2672
2992
2964
2645
2210
1859
1764
1950
2357
2743
2842
2611
2194
1799
1601
1706
2047
2467
2681
2544
2187
1770
1491
1498
1789
2224
2533
2514
2219
1791
1456
1375
1583
2007
2399
2501
2283
1875
1488
1314
1434
1821
2258
2480
2352
1990
1574
1302
1318
1623
2083
2415
2411
2128
1715
1393
1318
1526
1968
2359
2477
2274
1881
1499
1327
1444
1824
2259
2470
2331
1974
1526
1250
1255
1535
1983
2305
2294
1995
1584
1260
1186
1398
1833
2237
2352
2142
1745
1367
1201
1321
1709
2155
2384
2269
1921
1523
1284
1325
1647
2108
2437
2433
2138
1723
1375
1271
1443
1828
2183
2261
2034
1653
1303
1191
1389
1862
2416
2763
2768
2519
2226
2075
2173
2503
2933
3167
2929
2331
1599
980
693
762
1116
1501
1638
1471
1138
833
742
933
1393
1911
2203
2138
1839
1477
1257
1307
1638
2105
2439
2439
2157
1746
1427
1358
1585
2029
2437
2558
2351
1958
1585
1414
1531
1917
2369
2608
2496
2161
1770
1523
1569
1894
2368
2716
2719
2439
2042
1735
1678
1906
2358
2773
2901
2703
2320
1967
1825
1963
2365
2831
3086
2967
2618
2224
1975
2001
2313
2765
3107
3091
2783
2359
2019
1932
2135
2544
2941
3041
2800
2365
1984
1794
1889
2243
2671
2880
2739
2369
1945
1671
1674
1951
2382
2688
2662
2345
1904
1573
1479
1686
2112
2502
2612
2380
1968
1584
1405
1520
1901
2336
2551
2421
2063
1648
1381
1401
1707
2160
2470
2448
2154
1727
1389
1313
1533
1977
2377
2491
2283
1884
1507
1334
1447
1829
2270
2486
2364
2011
1616
1362
1390
1690
2135
2443
2407
2094
1652
1303
1217
1421
1854
2241
2344
2125
1723
1343
1172
1293
1677
2119
2350
2224
1872
1465
1217
1251
1569
2033
2366
2353
2065
1648
1325
1262
1485
1927
2331
2443
2227
1833
1441
1258
1347
1700
2103
2303
2175
1825
1441
1248
1351
1757
2307
2737
2832
2630
2318
2083
2071
2307
2719
3007
2898
2384
1685
1033
656
640
960
1415
1673
1594
1292
960
785
893
1266
1798
2178
2208
1951
1583
1290
1249
1490
1950
2368
2483
2270
1881
1512
1346
1473
1872
2320
2553
2432
2095
1680
1427
1471
1797
2263
2593
2579
2288
1878
1570
1503
1741
2194
2609
2730
2521
2146
1783
1626
1761
2160
2624
2864
2755
2416
2025
1789
1833
2161
2635
2982
2970
2669
2249
1923
1857
2083
2515
2922
3031
2800
2398
2015
1833
1937
2323
2762
2978
2829
2436
1997
1706
1698
1980
2413
2710
2669
2342
1904
1569
1479
1687
2109
2490
2579
2339
1933
1552
1379
1497
1882
2317
2517
2366
1984
1572
1317
1344
1665
2125
2448
2431
2134
1716
1405
1335
1561
1995
2386
2477
2244
1840
1456
1292
1419
1818
2260
2483
2347
1971
1569
1310
1349
1679
2162
2476
2455
2149
1714
1383
1296
1509
1932
2313
2395
2156
1735
1341
1164
1289
1689
2139
2353
2218
1858
1450
1209
1243
1559
2004
2321
2289
1977
1552
1231
1173
1402
1870
2283
2399
2177
1776
1403
1247
1375
1776
2227
2448
2310
1929
1489
1214
1227
1535
1995
2335
2333
2067
1695
1425
1437
1741
2256
2710
2879
2704
2352
1984
1793
1827
2041
2246
2207
1845
1298
777
478
506
863
1409
1839
1903
1683
1328
1061
1047
1329
1826
2266
2398
2197
1811
1451
1299
1449
1863
2323
2544
2415
2055
1643
1391
1431
1767
2232
2559
2543
2240
1823
1504
1449
1705
2148
2549
2659
2433
2030
1664
1518
1667
2083
2539
2766
2635
2267
1861
1622
1681
2029
2527
2884
2887
2601
2191
1872
1826
2068
2512
2917
3011
2768
2354
1973
1809
1939
2335
2779
2990
2820
2411
1984
1719
1738
2037
2480
2773
2720
2384
1938
1598
1509
1737
2165
2544
2623
2367
1939
1535
1374
1495
1871
2313
2512
2368
1993
1583
1326
1359
1686
2154
2470
2439
2127
1701
1369
1319
1563
2003
2395
2480
2251
1837
1461
1301
1438
1840
2287
2496
2354
1985
1571
1312
1344
1666
2127
2439
2411
2107
1689
1367
1311
1535
1982
2368
2443
2200
1776
1390
1221
1349
1745
2191
2391
2251
1878
1456
1210
1248
1573
2021
2331
2290
1973
1557
1235
1186
1423
1875
2285
2379
2146
1738
1360
1200
1343
1750
2192
2399
2256
1877
1466
1226
1275
1602
2059
2347
2295
1949
1502
1185
1142
1409
1904
2342
2479
2304
1971
1662
1569
1754
2193
2671
2887
2704
2238
1643
1148
927
1055
1386
1637
1591
1296
931
691
714
1045
1597
2075
2224
2032
1657
1311
1182
1344
1787
2256
2487
2354
1983
1600
1359
1398
1747
2214
2533
2503
2194
1776
1464
1403
1648
2096
2487
2588
2352
1947
1583
1425
1580
1986
2448
2673
2547
2198
1809
1584
1635
1968
2439
2768
2752
2451
2055
1757
1719
1971
2432
2838
2935
2703
2299
1925
1775
1910
2304
2742
2950
2799
2416
1991
1741
1775
2095
2538
2849
2803
2470
2032
1706
1642
1857
2287
2663
2723
2455
2030
1634
1458
1585
1969
2391
2559
2416
2032
1614
1365
1397
1719
2173
2467
2419
2103
1679
1359
1311
1562
2016
2413
2497
2260
1856
1472
1319
1458
1861
2297
2495
2338
1965
1555
1310
1347
1682
2147
2455
2419
2112
1694
1377
1328
1575
2032
2423
2503
2259
1845
1466
1301
1419
1816
2239
2418
2251
1869
1438
1186
1225
1535
1999
2307
2263
1951
1531
1206
1149
1389
1843
2242
2330
2095
1680
1297
1147
1291
1700
2145
2354
2209
1839
1429
1193
1239
1584
2061
2377
2338
2005
1566
1213
1124
1334
1754
2143
2234
2018
1649
1330
1243
1456
1958
2495
2801
2745
2453
2115
1904
1936
2196
2509
2587
2273
1689
1055
601
462
672
1146
1610
1767
1603
1271
971
887
1098
1560
2059
2309
2201
1845
1447
1218
1281
1638
2112
2432
2403
2096
1677
1365
1327
1582
2037
2417
2496
2257
1851
1484
1337
1487
1904
2354
2559
2425
2065
1662
1429
1489
1837
2310
2635
2611
2307
1904
1610
1579
1840
2310
2724
2822
2597
2198
1839
1711
1871
2288
2735
2934
2773
2391
1989
1749
1793
2122
2559
2880
2832
2512
2074
1744
1680
1904
2333
2703
2771
2509
2083
1697
1521
1647
2017
2448
2640
2466
2090
1647
1390
1424
1745
2195
2485
2432
2101
1663
1333
1280
1520
1969
2357
2432
2189
1776
1403
1264
1409
1814
2258
2454
2302
1919
1502
1259
1300
1637
2099
2389
2335
2001
1585
1265
1219
1459
1911
2299
2374
2125
1714
1347
1200
1349
1759
2192
2382
2224
1840
1415
1170
1205
1521
1982
2257
2197
1871
1439
1125
1073
1311
1757
2143
2215
1968
1558
1193
1046
1198
1614
2059
2251
2083
1703
1302
1068
1121
1456
1915
2211
2166
1851
1435
1134
1087
1331
1790
2169
2224
1943
1487
1071
885
1008
1424
1887
2130
2033
1735
1417
1293
1465
1920
2486
2902
2954
2681
2263
1897
1707
1712
1871
1973
1830
1417
909
496
361
550
1021
1566
1849
1783
1468
1117
927
1033
1422
1922
2263
2247
1950
1535
1238
1209
1467
1936
2330
2415
2177
1774
1411
1274
1429
1851
2297
2495
2349
1974
1575
1341
1401
1751
2223
2529
2487
2189
1783
1479
1458
1728
2193
2592
2672
2433
2046
1687
1565
1738
2172
2624
2835
2698
2337
1946
1723
1787
2138
2609
2925
2878
2547
2128
1813
1767
2006
2449
2832
2898
2638
2211
1830
1679
1817
2213
2631
2803
2627
2235
1809
1559
1594
1904
2343
2623
2544
2208
1774
1449
1395
1645
2087
2459
2518
2265
1835
1466
1313
1458
1872
2313
2512
2359
1984
1580
1338
1395
1741
2199
2491
2432
2113
1686
1379
1329
1584
2038
2413
2474
2222
1807
1438
1296
1453
1863
2295
2493
2339
1969
1567
1341
1408
1753
2212
2497
2441
2117
1695
1376
1319
1552
1979
2343
2398
2132
1703
1323
1170
1322
1733
2169
2353
2198
1814
1406
1184
1249
1595
2065
2362
2304
1979
1564
1259
1225
1479
1938
2337
2416
2177
1776
1424
1290
1450
1858
2286
2448
2256
1837
1378
1104
1129
1455
1914
2255
2259
2032
1727
1563
1666
2064
2651
3197
3418
3254
2865
2463
2206
2133
2234
2341
2245
1872
1331
835
575
640
1020
1566
1945
1970
1725
1363
1114
1133
1433
1926
2339
2427
2198
1803
1449
1325
1490
1910
2349
2533
2373
2003
1612
1392
1455
1802
2259
2548
2498
2181
1765
1475
1455
1723
2191
2579
2659
2418
2037
1683
1567
1733
2160
2608
2807
2672
2309
1929
1724
1802
2159
2629
2938
2896
2583
2183
1904
1886
2158
2624
3023
3092
2833
2432
2081
1939
2097
2496
2928
3120
2939
2544
2130
1895
1940
2271
2717
2995
2923
2559
2146
1827
1776
2013
2434
2790
2837
2559
2139
1761
1604
1746
2141
2553
2720
2542
2159
1747
1511
1571
1902
2349
2630
2559
2246
1808
1489
1449
1699
2139
2501
2551
2300
1886
1518
1381
1535
1953
2382
2559
2391
2005
1599
1360
1419
1760
2219
2505
2449
2134
1728
1424
1391
1651
2105
2480
2547
2306
1906
1552
1422
1583
1978
2393
2551
2377
1968
1571
1330
1373
1701
2139
2411
2334
2001
1587
1280
1249
1497
1941
2314
2363
2113
1707
1349
1225
1390
1799
2255
2434
2273
1894
1493
1275
1346
1703
2161
2449
2401
2091
1679
1383
1345
1589
2009
2339
2347
2039
1575
1197
1071
1253
1718
2235
2515
2484
2255
2015
1957
2187
2672
3282
3758
3698
3216
2605
2015
1642
1566
1739
1908
1824
1474
1040
673
579
789
1276
1787
2032
1931
1616
1267
1095
1207
1600
2087
2395
2347
2035
1641
1361
1344
1618
2070
2437
2495
2249
1853
1505
1392
1566
1977
2410
2585
2416
2043
1655
1445
1523
1882
2346
2640
2591
2287
1889
1616
1607
1880
2344
2731
2807
2559
2187
1855
1750
1934
2366
2814
3019
2858
2484
2105
1897
1980
2327
2791
3091
3021
2688
2267
1971
1945
2198
2640
3007
3052
2779
2361
2003
1876
2032
2432
2841
2987
2771
2362
1934
1700
1762
2096
2525
2800
2719
2373
1935
1618
1575
1822
2257
2625
2672
2416
2006
1635
1490
1650
2043
2453
2618
2433
2044
1639
1414
1478
1825
2278
2551
2485
2167
1749
1449
1424
1694
2151
2514
2559
2290
1862
1493
1366
1534
1949
2379
2547
2368
1985
1585
1367
1447
1808
2272
2554
2487
2159
1740
1443
1415
1670
2113
2469
2507
2233
1808
1434
1296
1449
1852
2262
2422
2241
1851
1443
1228
1296
1653
2112
2386
2314
1982
1571
1279
1264
1535
1996
2371
2419
2153
1744
1394
1280
1468
1904
2342
2512
2342
1968
1569
1341
1392
1705
2112
2346
2240
1891
1479
1212
1238
1580
2112
2593
2768
2640
2357
2135
2132
2390
2850
3280
3330
2924
2239
1515
1008
870
1077
1460
1728
1659
1361
996
793
848
1202
1731
2165
2262
2054
1680
1359
1264
1459
1903
2346
2515
2350
1971
1583
1364
1456
1826
2303
2589
2514
2191
1776
1487
1471
1743
2194
2559
2615
2362
1968
1627
1523
1729
2167
2601
2761
2593
2224
1842
1648
1743
2117
2589
2882
2825
2501
2110
1834
1838
2126
2604
2987
3047
2791
2384
2038
1923
2090
2496
2928
3107
2919
2527
2129
1914
1981
2326
2769
3042
2950
2604
2178
1860
1815
2064
2480
2822
2835
2535
2112
1739
1599
1757
2166
2559
2717
2519
2131
1729
1504
1578
1917
2358
2617
2527
2192
1765
1462
1437
1712
2153
2509
2544
2281
1859
1493
1369
1535
1961
2378
2531
2345
1946
1534
1314
1382
1733
2178
2437
2350
1999
1581
1288
1280
1565
2027
2390
2433
2176
1774
1424
1319
1499
1930
2365
2523
2350
1961
1564
1341
1409
1735
2188
2435
2342
1994
1567
1269
1245
1510
1955
2304
2329
2064
1651
1297
1185
1361
1784
2205
2363
2183
1785
1402
1193
1278
1649
2110
2384
2317
1995
1603
1334
1331
1616
2086
2448
2487
2214
1776
1381
1215
1347
1744
2160
2319
2165
1833
1509
1393
1585
2058
2621
3003
3031
2783
2419
2152
2080
2209
2430
2496
2230
1703
1087
617
432
606
1069
1574
1810
1709
1395
1082
944
1094
1506
2013
2331
2283
1966
1568
1296
1297
1587
2059
2418
2451
2192
1790
1441
1344
1535
1979
2416
2592
2415
2035
1649
1456
1557
1921
2383
2657
2583
2251
1856
1587
1591
1878
2343
2717
2768
