566
799
723
321
0
0
0
93
681
1151
1206
869
351
0
0
142
766
1362
1567
1328
809
304
48
207
775
1441
1777
1650
1175
615
227
209
641
1318
1803
1831
1440
863
384
235
526
1163
1774
1954
1702
1159
624
362
506
1070
1735
2081
1967
1481
896
505
507
962
1649
2135
2167
1796
1232
758
631
951
1616
2229
2421
2181
1655
1133
882
1047
1625
2295
2640
2511
2047
1485
1121
1143
1617
2293
2770
2777
2375
1791
1297
1152
1458
2096
2671
2827
2531
1963
1392
1104
1229
1775
2395
2698
2529
2018
1413
1008
988
1435
2103
2559
2551
2151
1535
1043
878
1145
1781
2342
2495
2208
1648
1087
803
947
1516
2180
2519
2381
1903
1314
927
921
1362
2006
2465
2474
2071
1475
993
848
1164
1797
2372
2545
2280
1723
1163
868
998
1558
2223
2559
2451
1988
1415
1039
1042
1494
2160
2631
2643
2261
1694
1232
1085
1396
2021
2595
2763
2498
1968
1424
1152
1302
1861
2495
2816
2677
2197
1638
1247
1245
1690
2352
2813
2814
2412
1823
1330
1185
1488
2129
2702
2851
2559
2021
1455
1168
1309
1866
2507
2838
2709
2240
1669
1279
1279
1731
2379
2827
2818
2413
1825
1330
1187
1490
2116
2677
2832
2543
1978
1410
1113
1260
1810
2447
2768
2631
2149
1569
1170
1166
1627
2288
2738
2736
2324
1733
1245
1094
1406
2047
2611
2769
2494
1959
1424
1162
1307
1847
2478
2798
2663
2186
1616
1215
1202
1650
2304
2775
2800
2414
1845
1379
1248
1575
2193
2765
2933
2659
2101
1507
1188
1313
1862
2503
2835
2701
2218
1625
1222
1216
1663
2310
2762
2761
2354
1774
1299
1170
1477
2098
2655
2806
2514
1965
1418
1158
1319
1877
2512
2829
2677
2183
1601
1209
1212
1680
2366
2858
2874
2471
1879
1387
1235
1535
2177
2791
3021
2818
2365
1921
1762
2035
2698
3489
4095
4014
3397
2781
2333
2166
2351
2701
2871
2638
2082
1389
839
671
966
1649
2286
2513
2300
1796
1287
1057
1244
1847
2527
2882
2771
2304
1744
1360
1355
1792
2445
2913
2918
2521
1941
1462
1333
1648
2267
2833
2998
2711
2158
1599
1304
1440
1974
2593
2896
2743
2255
1673
1283
1280
1731
2386
2839
2841
2451
1882
1407
1251
1535
2175
2736
2898
2633
2091
1534
1243
1373
1907
2503
2793
2627
2135
1535
1137
1139
1603
2255
2704
2691
2285
1693
1200
1042
1345
1974
2537
2698
2429
1889
1349
1085
1242
1807
2439
2762
2623
2131
1553
1171
1173
1623
2275
2718
2727
2325
1738
1239
1087
1380
1988
2544
2693
2393
1829
1234
923
1040
1595
2212
2499
2319
1801
1190
770
751
1189
1837
2274
2255
1840
1233
742
623
942
1581
2138
2274
1974
1399
848
576
723
1291
1938
2274
2150
1667
1091
719
722
1196
1886
2364
2379
1984
1415
962
848
1178
1823
2397
2554
2279
1728
1171
912
1094
1689
2347
2657
2485
1984
1387
991
993
1457
2128
2582
2591
2201
1625
1153
1023
1365
2020
2603
2751
2465
1909
1360
1095
1277
1865
2514
2842
2701
2223
1634
1232
1228
1686
2358
2839
2859
2455
1873
1386
1239
1563
2201
2766
2906
2608
2032
1471
1203
1370
1952
2597
2905
2752
2246
1657
1262
1258
1717
2383
2838
2818
2391
1782
1285
1139
1467
2125
2693
2833
2534
1983
1438
1167
1324
1877
2502
2800
2634
2131
1535
1143
1143
1604
2273
2734
2739
2324
1714
1215
1069
1375
2001
2558
2706
2416
1850
1302
1047
1229
1817
2455
2770
2609
2109
1509
1119
1121
1581
2238
2698
2723
2349
1785
1322
1195
1525
2176
2738
2879
2579
2014
1459
1184
1345
1910
2543
2853
2704
2224
1646
1258
1263
1728
2384
2839
2835
2443
1871
1381
1247
1578
2219
2791
2947
2677
2127
1581
1315
1488
2057
2694
3015
2858
2351
1754
1358
1358
1823
2487
2957
2960
2547
1958
1462
1325
1648
2281
2855
3008
2730
2181
1632
1341
1484
2029
2655
2960
2822
2339
1762
1361
1371
1838
2489
2933
2921
2496
1895
1392
1247
1575
2209
2757
2896
2609
2043
1491
1227
1392
1951
2599
2913
2766
2268
1680
1290
1296
1744
2395
2857
2847
2435
1840
1353
1226
1564
2215
2789
2930
2628
2066
1510
1237
1401
1975
2624
2945
2800
2303
1712
1307
1303
1757
2402
2849
2841
2439
1865
1392
1271
1607
2242
2801
2944
2655
2103
1556
1294
1458
2030
2672
2983
2829
2330
1766
1390
1393
1843
2489
2960
2974
2608
2064
1599
1456
1767
2374
2929
3085
2800
2258
1721
1449
1601
2160
2795
3120
2945
2432
1845
1449
1437
1858
2471
2918
2906
2491
1910
1436
1299
1621
2247
2814
2961
2661
2099
1535
1283
1455
2022
2667
2965
2797
2284
1689
1296
1294
1746
2397
2843
2837
2430
1827
1335
1203
1535
2195
2807
3030
2817
2350
1903
1734
1984
2638
3396
3917
3734
3127
2441
1869
1603
1767
2159
2403
2256
1757
1122
629
509
865
1563
2174
2354
2103
1584
1058
793
967
1556
2217
2526
2363
1847
1254
867
880
1356
2029
2485
2489
2093
1516
1045
899
1219
1859
2437
2593
2304
1753
1201
925
1093
1663
2298
2607
2448
1951
1359
960
986
1472
2151
2599
2559
2175
1586
1098
967
1295
1937
2502
2654
2368
1811
1271
1015
1202
1807
2466
2798
2637
2127
1520
1133
1149
1616
2286
2739
2740
2343
1760
1286
1165
1500
2160
2745
2902
2634
2096
1535
1277
1453
2032
2686
3008
2837
2321
1729
1341
1359
1840
2521
2994
2967
2533
1922
1424
1295
1628
2262
2820
2953
2640
2064
1485
1211
1373
1946
2595
2901
2726
2183
1535
1131
1138
1607
2259
2699
2658
2224
1598
1087
943
1269
1904
2475
2613
2301
1745
1197
942
1119
1723
2367
2670
2496
1989
1392
1018
1050
1535
2241
2711
2707
2294
1716
1261
1137
1479
2137
2704
2833
2527
1962
1393
1127
1311
1908
2559
2877
2711
2192
1590
1205
1234
1713
2374
2834
2832
2417
1825
1339
1207
1535
2194
2773
2920
2608
2033
1469
1199
1376
1966
2623
2939
2775
2273
1688
1291
1303
1787
2479
2955
2934
2508
1903
1410
1296
1648
2291
2857
3006
2704
2143
1588
1322
1505
2097
2742
3058
2896
2387
1799
1412
1423
1872
2530
2992
2990
2597
2019
1535
1420
1759
2391
2973
3129
2798
2223
1666
1407
1595
2178
2832
3157
2978
2451
1854
1451
1456
1927
2599
3046
3038
2613
2027
1563
1424
1744
2374
2943
3091
2761
2179
1621
1344
1503
2089
2726
3034
2867
2342
1743
1354
1385
1863
2521
2960
2927
2481
1874
1375
1239
1573
2224
2783
2910
2594
2015
1455
1195
1371
1950
2580
2873
2698
2192
1602
1202
1210
1654
2320
2759
2734
2297
1685
1184
1051
1392
2046
2618
2751
2437
1859
1291
1008
1167
1730
2357
2654
2490
2000
1418
1040
1062
1535
2219
2665
2640
2230
1645
1161
1038
1377
2023
2591
2726
2433
1889
1359
1109
1290
1870
2503
2800
2624
2103
1503
1124
1155
1648
2314
2763
2750
2331
1737
1262
1143
1493
2145
2720
2862
2545
1983
1442
1205
1392
1956
2593
2889
2725
2224
1645
1265
1296
1780
2445
2889
2864
2435
1842
1346
1218
1575
2235
2813
2955
2643
2082
1535
1293
1486
2064
2686
2961
2777
2282
1716
1351
1397
1904
2559
3031
3013
2579
1985
1503
1371
1702
2336
2896
3049
2743
2175
1622
1373
1564
2131
2755
3047
2865
2351
1760
1370
1391
1867
2522
2970
2938
2503
1919
1442
1323
1680
2336
2895
3011
2675
2089
1519
1254
1431
2032
2710
3084
2988
2559
2075
1794
1926
2511
3299
4022
4095
3646
3015
2544
2384
2559
2970
3258
3101
2546
1819
1168
848
1006
1602
2288
2621
2496
2038
1487
1142
1189
1687
2371
2832
2819
2400
1808
1323
1200
1534
2173
2717
2839
2525
1958
1403
1135
1313
1894
2515
2799
2624
2114
1520
1147
1171
1654
2320
2763
2733
2309
1714
1243
1120
1442
2077
2627
2759
2448
1883
1335
1085
1278
1863
2498
2799
2631
2127
1535
1171
1206
1703
2385
2847
2828
2411
1823
1351
1246
1602
2259
2822
2963
2663
2113
1584
1340
1535
2147
2798
3124
2967
2475
1907
1523
1557
2045
2731
3209
3191
2761
2185
1723
1616
1963
2608
3186
3332
2995
2413
1872
1619
1803
2382
3003
3295
3086
2528
1920
1526
1553
2026
2686
3117
3046
2596
1983
1472
1287
1570
2176
2713
2823
2491
1893
1297
1012
1197
1765
2377
2646
2450
1936
1346
959
965
1435
2097
2513
2469
2031
1423
944
816
1150
1788
2338
2459
2155
1584
1040
791
965
1554
2190
2459
2275
1763
1184
833
870
1356
2014
2448
2417
1986
1375
891
768
1111
1766
2320
2454
2160
1584
1037
791
977
1562
2193
2473
2294
1769
1165
775
797
1280
1964
2399
2357
1909
1291
801
669
1002
1659
2224
2342
2011
1423
866
610
795
1359
1984
2268
2076
1535
944
565
592
1070
1743
2183
2154
1722
1123
640
528
874
1535
2103
2206
1865
1267
719
487
711
1329
1966
2231
2037
1519
926
542
558
1012
1683
2126
2096
1675
1071
592
476
823
1499
2067
2186
1883
1327
799
565
770
1362
2006
2293
2114
1600
1010
655
715
1223
1911
2340
2283
1849
1259
786
671
1005
1667
2231
2353
2035
1453
909
660
839
1419
2059
2333
2157
1646
1073
709
720
1212
1885
2320
2286
1856
1266
818
720
1062
1703
2241
2352
2038
1468
917
674
865
1464
2128
2423
2252
1738
1148
786
835
1333
2011
2449
2432
2011
1408
906
779
1136
1803
2355
2471
2163
1595
1047
810
1014
1613
2256
2527
2333
1804
1203
839
879
1377
2057
2479
2443
2020
1419
947
833
1183
1839
2396
2518
2214
1643
1102
855
1055
1631
2246
2511
2313
1779
1195
821
855
1344
1981
2384
2331
1903
1309
843
737
1086
1728
2267
2351
2005
1425
880
641
832
1422
2064
2343
2162
1650
1057
681
707
1199
1854
2288
2256
1815
1199
711
593
938
1600
2143
2246
1918
1328
815
608
862
1535
2273
2667
2615
2230
1754
1485
1621
2197
2927
3419
3330
2729
1883
1099
695
795
1267
1705
1744
1391
821
335
160
413
1087
1799
2151
2031
1585
1074
763
862
1415
2144
2612
2608
2215
1663
1222
1137
1512
2205
2812
2969
2687
2146
1638
1415
1637
2234
2880
3185
3001
2487
1920
1573
1626
2134
2819
3297
3284
2846
2257
1791
1711
2097
2762
3351
3462
3111
2530
2001
1779
2000
2611
3285
3665
3456
2901
2322
1989
2061
2559
3280
3879
3835
3283
2664
2207
2099
2446
3119
3807
4033
3583
2950
2417
2179
2383
2989
3751
4095
3905
3245
2642
2286
2331
2844
3621
4095
4095
3568
2891
2406
2287
2618
3263
3958
4095
3674
3001
2434
2176
2351
2919
3595
3974
3649
3019
2393
1993
1993
2443
3088
3534
3447
2943
2305
1814
1693
2011
2624
3152
3241
2874
2265
1690
1421
1590
2139
2727
2963
2742
2196
1590
1215
1258
1747
2398
2811
2745
2297
1680
1203
1095
1441
2071
2591
2655
2305
1723
1186
955
1175
1759
2373
2649
2466
1957
1377
1031
1093
1597
2271
2703
2659
2226
1637
1187
1106
1485
2155
2704
2809
2463
1886
1356
1129
1344
1937
2581
2864
2684
2154
1562
1190
1216
1731
2393
2809
2767
2327
1734
1266
1165
1518
2174
2733
2850
2527
1953
1408
1170
1377
1971
2603
2865
2661
2121
1519
1152
1187
1664
2308
2735
2697
2267
1687
1227
1114
1456
2086
2604
2694
2374
1808
1284
1062
1258
1839
2448
2717
2512
1977
1366
989
1040
1535
2198
2615
2551
2110
1493
1019
907
1260
1911
2448
2550
2224
1648
1104
855
1056
1648
2271
2541
2363
1843
1259
882
933
1425
2112
2535
2486
2046
1453
992
899
1253
1904
2441
2554
2241
1675
1127
874
1077
1666
2273
2514
2309
1783
1195
816
847
1319
1969
2384
2336
1875
1259
779
663
1011
1667
2205
2301
1969
1392
864
650
861
1473
2118
2383
2189
1648
1047
697
758
1264
1934
2352
2320
1904
1299
820
710
1063
1712
2230
2313
1978
1394
885
718
1007
1728
2480
2854
2767
2341
1863
1593
1712
2238
2896
3273
3054
2358
1441
657
309
469
1003
1495
1587
1264
726
243
87
368
1040
1740
2057
1891
1375
819
465
528
1013
1703
2129
2095
1665
1077
631
546
928
1610
2145
2224
1881
1315
799
582
801
1401
2036
2303
2111
1586
999
655
713
1232
1913
2331
2283
1854
1264
802
705
1076
1744
2275
2368
2032
1441
899
677
892
1501
2155
2419
2213
1680
1104
767
839
1371
2063
2480
2448
2027
1443
988
902
1275
1919
2437
2537
2224
1664
1135
920
1161
1776
2406
2666
2467
1958
1391
1058
1133
1643
2305
2715
2655
2214
1617
1153
1065
1427
2096
2639
2725
2369
1776
1232
996
1217
1813
2417
2651
2417
1861
1247
880
929
1406
2047
2431
2342
1862
1238
759
655
1040
1707
2231
2310
1966
1367
815
575
784
1391
2007
2251
2030
1475
874
510
571
1089
1780
2199
2141
1677
1067
618
551
947
1639
2179
2271
1933
1341
806
600
835
1453
2094
2345
2136
1593
997
653
731
1264
1947
2361
2306
1861
1285
855
794
1185
1854
2383
2466
2129
1535
1002
786
1023
1664
2318
2595
2403
1895
1338
1023
1140
1703
2421
2898
2914
2540
2006
1612
1535
1919
2551
3044
3056
2586
1840
1081
573
491
806
1200
1253
892
254
0
0
0
0
372
757
784
482
69
0
0
274
964
1535
1661
1349
795
299
80
292
889
1527
1813
1630
1091
499
147
208
710
1382
1791
1727
1276
682
257
209
624
1325
1923
2077
1783
1269
781
624
893
1535
2214
2490
2291
1773
1198
881
979
1511
2179
2583
2511
2080
1488
1056
976
1373
2032
2557
2652
2324
1755
1232
1023
1289
1935
2586
2843
2634
2101
1513
1199
1292
1827
2511
2950
2919
2489
1915
1487
1434
1843
2526
3111
3233
2889
2320
1818
1614
1845
2462
3090
3341
3088
2526
1949
1615
1694
2201
2843
3233
3117
2612
1984
1484
1371
1739
2352
2847
2901
2512
1903
1331
1062
1232
1790
2359
2558
2302
1736
1122
739
771
1257
1889
2252
2146
1661
1014
528
411
765
1423
1937
1971
1591
975
434
208
428
1019
1637
1858
1634
1086
506
160
208
700
1363
1767
1696
1223
610
160
83
469
1140
1686
1775
1414
825
306
112
363
978
1618
1861
1641
1093
511
183
254
766
1445
1850
1780
1318
715
277
214
598
1272
1815
1900
1535
955
442
240
484
1122
1774
2011
1791
1233
654
326
411
925
1605
1999
1923
1457
859
432
368
747
1414
1952
2031
1690
1109
592
397
656
1289
1915
2149
1924
1367
784
454
542
1073
1755
2140
2065
1602
987
534
448
829
1489
2009
2091
1727
1142
611
396
629
1250
1869
2087
1855
1309
733
399
471
1008
1686
2079
1990
1520
912
462
400
816
1507
2047
2130
1781
1201
683
490
752
1365
1987
2217
1989
1456
883
560
647
1185
1871
2271
2205
1750
1152
710
650
1071
1746
2286
2353
1986
1392
857
671
930
1559
2171
2390
2164
1618
1040
702
784
1317
2000
2387
2301
1846
1239
795
733
1136
1808
2333
2397
2047
1462
946
751
992
1621
2240
2480
2269
1743
1167
832
911
1439
2110
2492
2417
1958
1360
925
866
1277
1946
2449
2527
2192
1629
1119
930
1206
1846
2459
2691
2465
1930
1358
1040
1136
1664
2318
2704
2608
2132
1509
1058
985
1378
2029
2527
2585
2207
1603
1074
864
1111
1743
2373
2617
2385
1856
1294
976
1091
1638
2308
2698
2611
2143
1532
1097
1050
1467
2153
2684
2751
2379
1787
1259
1059
1318
1963
2611
2885
2715
2259
1783
1570
1789
2414
3184
3747
3715
3207
2613
2151
2000
2209
2615
2848
2644
2094
1373
769
535
789
1469
2169
2470
2304
1808
1267
976
1117
1691
2387
2795
2720
2254
1664
1239
1191
1615
2291
2817
2883
2521
1936
1415
1223
1483
2098
2703
2922
2683
2143
1565
1232
1327
1856
2512
2881
2791
2325
1734
1312
1265
1683
2352
2869
2926
2544
1958
1439
1238
1488
2104
2719
2954
2718
2176
1606
1303
1445
1983
2651
3024
2917
2438
1841
1401
1347
1774
2448
2992
3071
2704
2128
1619
1433
1712
2340
2960
3191
2942
2402
1841
1519
1613
2144
2833
3262
3184
2697
2102
1673
1617
2027
2698
3227
3284
2887
2288
1756
1535
1792
2410
3015
3227
2944
2378
1797
1458
1535
2073
2714
3079
2946
2449
1851
1392
1309
1686
2317
2801
2845
2449
1840
1295
1086
1319
1920
2507
2722
2475
1915
1331
1017
1117
1641
2286
2630
2509
2029
1411
976
901
1296
1953
2437
2480
2113
1534
1023
841
1125
1767
2375
2585
2346
1808
1243
927
1034
1573
2234
2608
2488
2006
1394
959
921
1348
2032
2545
2593
2227
1647
1136
958
1222
1855
2461
2674
2425
1870
1296
995
1118
1655
2332
2689
2582
2124
1535
1110
1040
1448
2112
2617
2667
2291
1714
1215
1041
1314
1939
2535
2729
2463
1909
1332
1014
1120
1653
2303
2672
2559
2083
1462
1009
944
1343
1988
2480
2518
2137
1523
993
816
1072
1667
2245
2445
2207
1661
1066
730
827
1361
2061
2425
2325
1872
1289
866
826
1255
1930
2437
2498
2149
1535
1015
811
1055
1659
2257
2473
2230
1713
1202
974
1214
1891
2687
3203
3213
2816
2303
1939
1920
2321
2903
3236
2992
2305
1442
703
371
557
1151
1781
2033
1853
1376
879
638
797
1379
2090
2489
2411
1949
1363
948
912
1344
2027
2534
2595
2229
1649
1143
960
1246
1889
2494
2704
2466
1923
1349
1039
1151
1686
2331
2687
2579
2110
1519
1115
1082
1506
2176
2655
2671
2288
1706
1198
1036
1348
2006
2624
2823
2559
1995
1414
1097
1211
1760
2417
2795
2692
2233
1654
1231
1190
1618
2288
2785
2832
2469
1902
1409
1261
1559
2205
2811
3015
2755
2221
1663
1355
1488
2043
2715
3090
2982
2491
1882
1467
1454
1888
2523
3030
3088
2707
2128
1619
1435
1704
2310
2891
3058
2757
2171
1571
1232
1323
1842
2465
2780
2624
2112
1482
1040
982
1406
2064
2517
2523
2121
1495
963
774
1040
1675
2263
2438
2167
1616
1015
710
831
1374
2023
2375
2257
1793
1201
775
755
1210
1884
2384
2427
2047
1441
917
741
1019
1658
2261
2451
2206
1653
1078
764
870
1408
2070
2414
2282
1792
1190
774
743
1186
1860
2352
2387
2003
1410
889
707
987
1631
2227
2419
2160
1597
1018
714
843
1407
2065
2407
2285
1808
1231
805
767
1201
1882
2372
2398
2013
1415
897
720
987
1619
2221
2415
2171
1636
1050
722
843
1398
2079
2417
2293
1813
1237
836
822
1267
1937
2421
2457
2090
1515
1018
863
1168
1792
2379
2556
2287
1744
1180
886
1033
1605
2269
2610
2467
1969
1370
951
940
1392
2063
2527
2544
2146
1535
1030
853
1135
1771
2331
2503
2239
1683
1119
819
944
1515
2175
2507
2361
1857
1252
831
816
1263
1938
2431
2454
2070
1471
966
806
1103
1738
2320
2505
2251
1707
1142
835
944
1491
2159
2499
2395
1934
1360
1001
1077
1635
2418
3031
3180
2891
2396
1975
1867
2178
2786
3289
3259
2686
1830
1009
511
527
1020
1668
2031
1953
1535
1009
677
711
1196
1905
2416
2453
2090
1506
1008
851
1163
1808
2402
2588
2322
1786
1221
922
1059
1629
2275
2615
2469
1990
1409
1017
1008
1461
2130
2598
2605
2198
1609
1125
986
1305
1943
2555
2750
2482
1926
1360
1076
1234
1822
2496
2859
2727
2226
1607
1187
1189
1663
2354
2851
2871
2471
1887
1392
1264
1600
2255
2848
3024
2746
2183
1642
1362
1527
2109
2769
3136
2998
2507
1932
1533
1520
1985
2672
3171
3189
2765
2164
1643
1472
1787
2445
3053
3239
2944
2385
1813
1522
1667
2211
2854
3184
3007
2479
1873
1456
1431
1856
2503
2944
2939
2518
1908
1377
1195
1481
2116
2687
2831
2544
1990
1411
1106
1235
1790
2433
2753
2604
2091
1478
1071
1058
1509
2172
2640
2659
2265
1677
1177
1033
1344
1984
2559
2717
2429
1855
1293
1009
1185
1775
2430
2759
2623
2126
1510
1088
1067
1504
2181
2663
2681
2290
1709
1223
1088
1415
2078
2675
2848
2555
1995
1422
1141
1307
1885
2544
2875
2726
2224
1632
1243
1247
1705
2361
2819
2813
2403
1818
1331
1195
1511
2163
2752
2919
2619
2046
1482
1215
1391
1982
2658
3001
2859
2372
1782
1370
1351
1802
2471
2947
2955
2545
1950
1451
1283
1590
2233
2833
3013
2727
2167
1613
1328
1481
2047
2698
3024
2865
2359
1766
1369
1383
1857
2543
3035
3041
2634
2039
1535
1406
1730
2379
2973
3151
2851
2275
1705
1419
1584
2167
2829
3173
3013
2506
1905
1490
1488
1949
2618
3095
3099
2672
2077
1594
1458
1787
2416
2986
3139
2831
2257
1704
1435
1618
2192
2826
3134
2945
2416
1817
1425
1440
1904
2582
3056
3046
2629
2035
1535
1394
1716
2354
2931
3089
2791
2227
1680
1407
1583
2172
2832
3181
3011
2493
1906
1520
1535
2005
2684
3166
3158
2722
2128
1648
1501
1826
2475
3102
3285
2963
2368
1792
1492
1643
2207
2864
3228
3071
2559
1987
1601
1610
2064
2723
3191
3183
2746
2149
1648
1502
1831
2469
3051
3201
2878
2309
1758
1488
1659
2237
2889
3229
3059
2543
1961
1579
1588
2055
2736
3229
3230
2799
2206
1726
1583
1891
2521
3111
3258
2935
2362
1806
1531
1717
2293
2944
3264
3104
2559
1993
1600
1630
2099
2785
3261
3255
2816
2226
1754
1632
1968
2624
3213
3377
3041
2451
1897
1630
1797
2355
2990
3310
3134
2618
2039
1669
1685
2144
2795
3261
3270
2857
2266
1787
1657
1979
2619
3207
3363
3024
2447
1901
1631
1785
2326
2950
3267
3095
2559
1975
1583
1585
2036
2682
3124
3103
2671
2082
1597
1466
1807
2453
3027
3164
2837
2271
1734
1463
1631
2208
2862
3198
3026
2506
1915
1515
1520
1975
2639
3091
3071
2667
2090
1628
1535
1927
2647
3338
3655
3415
2910
2445
2276
2551
3236
4095
4095
4080
3195
2326
1664
1430
1714
2256
2629
2559
2145
1565
1124
1055
1440
2133
2741
2919
2653
2112
1577
1322
1503
2103
2765
3094
2915
2389
1803
1415
1439
1938
2624
3085
3058
2642
2078
1621
1521
1879
2544
3151
3312
2978
2399
1850
1601
1792
2403
3088
3421
3229
2689
2101
1712
1728
2199
2864
3341
3327
2871
2271
1808
1714
2078
2737
3360
3526
3184
2607
2069
1831
2034
2637
3327
3711
3504
2954
2363
1984
2011
2496
3206
3781
3792
3293
2689
2227
2121
2464
3149
3868
4095
3633
3006
2479
2254
2450
3056
3854
4095
4090
3406
2801
2432
2448
2907
3638
4095
4095
3603
2942
2469
2357
2688
3351
4095
4095
3786
3087
2522
2263
2436
3006
3735
4095
3865
3201
2582
2201
2218
2679
3353
3913
3842
3300
2704
2255
2141
2465
3121
3783
3984
3537
2915
2384
2151
2345
2937
3653
4075
3779
3157
2559
2190
2202
2671
3360
3975
3947
3373
2748
2286
2176
2497
3136
3792
4014
3553
2930
2394
2161
2355
2950
3679
4095
3913
3251
2643
2278
2298
2758
3469
4095
4093
3477
2842
2375
2262
2607
3277
4006
4095
3677
3007
2448
2206
2415
3024
3805
4095
3905
3215
2606
2245
2298
2775
3493
4095
3994
3379
2753
2293
2196
2544
3216
3937
4095
3659
2992
2437
2192
2367
2928
3638
4052
3748
3125
2528
2176
2222
2704
3410
4019
3936
3321
2678
2201
2090
2423
3055
3678
3811
3375
2746
2189
1936
2122
2687
3328
3646
3397
2843
2256
1874
1904
2367
2999
3438
3357
2879
2267
1794
1681
2005
2624
3167
3280
2928
2352
1820
1571
1765
2327
2931
3195
2979
2463
1891
1533
1587
2071
2727
3159
3118
2662
2074
1603
1491
1845
2488
3041
3153
2798
2202
1651
1392
1587
2160
2759
3003
2786
2246
1661
1298
1354
1849
2511
2939
2894
2446
1857
1388
1274
1618
2235
2747
2833
2496
1929
1423
1223
1435
2005
2619
2874
2691
2178
1614
1263
1299
1781
2429
2841
2799
2362
1775
1321
1215
1563
2197
2719
2800
2462
1889
1357
1130
1339
1933
2546
2813
2609
2093
1504
1153
1210
1707
2352
2755
2693
2256
1672
1221
1143
1505
2136
2640
2711
2359
1767
1216
964
1161
1729
2323
2555
2355
1840
1263
914
973
1465
2112
2502
2435
2000
1415
963
885
1264
1910
2438
2544
2240
1664
1152
944
1161
1744
2353
2603
2389
1874
1310
969
1041
1535
2162
2519
2432
2007
1453
1061
1057
1521
2270
2908
3123
2879
2399
1983
1846
2135
2751
3358
3470
2956
2100
1174
557
413
794
1381
1743
1703
1323
816
441
394
821
1520
2084
2224
1936
1394
915
722
957
1535
2147
2379
2176
1657
1090
753
816
1312
1953
2343
2273
1837
1268
849
791
1184
1841
2367
2451
2127
1566
1040
823
1031
1601
2192
2405
2186
1671
1134
819
893
1394
2047
2445
2381
1939
1362
947
893
1269
1917
2435
2515
2192
1632
1111
887
1127
1745
2373
2621
2416
1920
1374
1051
1125
1639
2285
2672
2620
2193
1625
1195
1119
1493
2163
2688
2767
2431
1871
1360
1166
1405
2001
2613
2838
2625
2112
1552
1225
1305
1814
2455
2837
2756
2309
1727
1280
1199
1566
2188
2674
2711
2339
1759
1227
979
1189
1776
2358
2559
2320
1782
1177
821
879
1379
2010
2383
2290
1814
1188
721
640
1009
1669
2178
2259
1921
1344
820
607
831
1426
2032
2247
2000
1453
880
571
656
1172
1851
2240
2157
1695
1092
659
599
987
1659
2177
2249
1898
1325
823
647
871
1464
2070
2303
2093
1582
1023
713
791
1299
1935
2291
2192
1728
1138
707
651
1056
1710
2214
2274
1917
1334
821
624
869
1486
2087
2305
2083
1555
978
665
751
1259
1916
2315
2246
1794
1217
802
752
1165
1829
2325
2371
2009
1427
919
727
960
1579
2171
2368
2131
1606
1047
729
812
1333
1997
2374
2262
1791
1189
747
675
1067
1712
2210
2256
1887
1306
793
599
848
1478
2104
2327
2091
1531
958
654
738
1263
1924
2304
2213
1757
1166
753
716
1135
1806
2304
2359
1987
1393
881
694
955
1573
2192
2416
2192
1660
1094
780
880
1412
2073
2429
2319
1838
1232
819
781
1184
1856
2381
2459
2108
1499
963
773
1050
1680
2311
2534
2304
1751
1168
826
930
1456
2118
2491
2391
1923
1315
869
816
1221
1891
2395
2446
2096
1511
995
811
1078
1706
2304
2496
2237
1677
1077
748
844
1392
2090
2479
2391
1922
1319
883
831
1247
1937
2469
2525
2147
1530
1008
831
1118
1801
2487
2803
2663
2228
1785
1568
1759
2367
3102
3550
3423
2833
2090
1406
1062
1206
1648
1981
1925
1488
880
375
225
538
1238
1931
2202
1995
1472
927
646
795
1387
2096
2463
2335
1836
1203
752
723
1179
1886
2415
2480
2128
1533
1008
816
1077
1712
2315
2514
2276
1745
1177
854
958
1508
2178
2525
2405
1918
1315
893
864
1290
1963
2455
2506
2137
1557
1050
858
1130
1762
2368
2589
2353
1810
1243
945
1090
1669
2354
2736
2640
2162
1570
1151
1129
1583
2265
2771
2821
2448
1872
1366
1205
1489
2154
2797
3024
2781
2247
1699
1408
1535
2096
2751
3115
2995
2526
1936
1490
1435
1856
2523
3039
3091
2707
2118
1586
1382
1639
2243
2832
3012
2711
2112
1488
1136
1227
1759
2395
2725
2559
2073
1425
954
884
1309
1980
2474
2511
2129
1521
991
801
1072
1691
2269
2447
2162
1586
988
685
801
1358
2030
2405
2299
1814
1202
762
717
1153
1853
2371
2421
2064
1463
949
777
1063
1700
2301
2495
2234
1654
1071
763
896
1494
2176
2526
2383
1883
1268
847
826
1279
1971
2484
2521
2133
1531
1033
873
1168
1805
2413
2610
2368
1846
1309
1031
1165
1728
2378
2705
2556
2064
1458
1040
997
1431
2101
2587
2610
2224
1633
1135
973
1280
1932
2527
2722
2461
1904
1314
991
1121
1683
2347
2681
2545
2047
1430
998
969
1382
2047
2525
2529
2114
1499
976
813
1127
1782
2387
2559
2289
1712
1123
823
973
1568
2256
2626
2515
2027
1435
1031
1008
1458
2128
2607
2606
2187
1583
1071
910
1251
1908
2519
2715
2449
1904
1315
1015
1173
1774
2449
2803
2666
2166
1557
1136
1093
1503
2182
2641
2622
2170
1518
975
794
1101
1761
2373
2559
2304
1745
1187
905
1051
1616
2276
2615
2471
1970
1373
975
976
1439
2137
2624
2635
2225
1621
1130
971
1283
1931
2511
2657
2352
1786
1227
963
1171
1838
2609
3082
3081
2706
2219
1894
1968
2494
3248
3869
3767
3059
2176
1343
875
938
1419
1909
2017
1721
1168
656
432
640
1275
2015
2421
2330
1872
1309
931
944
1423
2116
2615
2640
2240
1628
1119
963
1271
1899
2465
2617
2305
1725
1151
859
999
1585
2229
2559
2433
1950
1360
961
963
1438
2145
2650
2689
2282
1661
1148
991
1294
1927
2480
2629
2337
1767
1181
866
1008
1585
2245
2559
2422
1919
1317
899
900
1365
2043
2515
2517
2114
1498
1000
848
1169
1821
2416
2587
2315
1749
1194
895
1049
1629
2278
2593
2439
1951
1382
1009
1040
1513
2206
2704
2736
2349
1755
1235
1072
1382
2031
2608
2756
2455
1875
1296
995
1148
1711
2333
2622
2441
1922
1307
889
877
1341
2018
2464
2426
1984
1344
816
643
937
1585
2176
2324
2032
1456
901
627
763
1318
1952
2259
2105
1600
998
622
631
1117
1819
2318
2339
1970
1409
950
817
1154
1821
2416
2599
2342
1799
1251
976
1152
1741
2385
2711
2583
2089
1474
1091
1109
1613
2327
2845
2879
2487
1906
1420
1281
1616
2271
2876
3044
2739
2189
1685
1507
1789
2443
3178
3620
3483
2958
2355
1943
1922
2352
2993
3485
3455
2969
2329
1824
1698
2033
2674
3255
3401
3056
2464
1909
1639
1811
2370
2995
3313
3134
2602
1994
1590
1579
2032
2696
3166
3152
2722
2127
1633
1488
1830
2465
3027
3159
2832
2252
1686
1406
1575
2142
2771
3057
2859
2320
1709
1308
1313
1776
2427
2889
2880
2475
1894
1412
1286
1648
2313
2899
3033
2695
2097
1535
1285
1466
2045
2689
3007
2849
2347
1761
1389
1435
1936
2624
3101
3095
2672
2094
1616
1498
1840
2480
3056
3216
2907
2350
1808
1556
1756
2370
3059
3407
3186
2633
2020
1624
1629
2089
2754
3223
3218
2795
2191
1691
1535
1869
2512
3088
3223
2887
2298
1755
1504
1696
2288
2943
3265
3066
2522
1922
1535
1569
2059
2741
3207
3181
2736
2143
1650
1527
1885
2549
3137
3250
2896
2295
1727
1471
1680
2300
2999
3411
3328
2880
2401
2162
2294
2863
3727
4095
4095
3927
3209
2641
2329
2384
2723
3017
2938
2489
1843
1247
979
1216
1883
2611
2989
2867
2384
1834
1484
1535
2047
2736
3203
3177
2735
2144
1664
1535
1887
2531
3107
3238
2908
2327
1776
1513
1709
2279
2918
3225
3036
2503
1904
1526
1562
2058
2729
3171
3121
2672
2065
1594
1472
1829
2471
3023
3133
2788
2192
1616
1348
1556
2149
2795
3082
2880
2352
1778
1418
1461
1968
2636
3069
3027
2578
1973
1498
1383
1743
2407
2978
3119
2793
2222
1670
1421
1639
2255
2902
3193
2976
2437
1856
1508
1579
2071
2735
3173
3127
2688
2101
1638
1533
1898
2545
3122
3237
2880
2279
1708
1431
1614
2192
2810
3056
2821
2256
1616
1222
1253
1727
2357
2736
2654
2183
1535
1040
908
1260
1911
2448
2541
2193
1589
1008
749
937
1520
2153
2414
2217
1685
1088
716
755
1267
1955
2383
2342
1904
1307
848
766
1137
1808
2365
2456
2128
1535
975
721
943
1558
2208
2496
2321
1808
1226
875
934
1444
2128
2547
2487
2035
1434
960
843
1198
1857
2395
2496
2170
1590
1043
809
1020
1647
2290
2557
2341
1797
1213
855
913
1437
2131
2559
2507
2063
1463
1008
918
1296
1968
2522
2623
2277
1681
1134
910
1158
1785
2410
2662
2435
1889
1291
927
1004
1535
2235
2657
2599
2142
1515
1040
925
1296
1967
2513
2624
2283
1686
1139
906
1131
1777
2418
2689
2470
1925
1330
970
1038
1535
2219
2624
2559
2128
1518
1057
974
1361
2033
2593
2675
2338
1766
1229
992
1217
1835
2463
2719
2510
1971
1363
993
1060
1591
2278
2706
2655
2199
1589
1125
1045
1447
2128
2677
2784
2450
1871
1326
1095
1328
1936
2559
2831
2614
2081
1487
1150
1229
1767
2441
2838
2757
2290
1681
1220
1136
1527
2211
2757
2844
2480
1920
1384
1156
1401
2013
2641
2889
2672
2143
1535
1170
1225
1735
2405
2803
2719
2256
1639
1162
1075
1465
2131
2657
2733
2363
1767
1213
976
1215
1838
2480
2747
2531
1975
1360
998
1067
1585
2254
2659
2595
2148
1535
1069
971
1358
2021
2544
2624
2266
1680
1143
938
1178
1798
2432
2686
2455
1909
1315
962
1053
1587
2289
2695
2608
2141
1516
1041
951
1366
2034
2559
2650
2299
1703
1157
934
1174
1807
2445
2700
2480
1925
1318
960
1040
1563
2225
2610
2511
2023
1406
957
891
1299
1982
2508
2559
2192
1584
1031
807
1043
1659
2275
2503
2288
1763
1162
800
859
1398
2099
2491
2410
1951
1349
901
837
1241
1914
2434
2496
2134
1535
999
784
1031
1664
2304
2558
2335
1778
1169
818
912
1457
2131
2517
2434
1965
1343
880
806
1201
1872
2397
2457
2091
1472
927
707
944
1574
2191
2415
2167
1617
1039
705
813
1365
2057
2447
2352
1859
1225
766
699
1104
1802
2347
2437
2082
1472
935
734
988
1612
2219
2432
2198
1655
1088
782
919
1531
2288
2758
2747
2349
1818
1461
1490
1983
2704
3250
3243
2674
1818
977
496
528
1008
1569
1766
1527
1003
470
208
365
955
1701
2145
2076
1615
1000
571
522
945
1648
2180
2246
1882
1280
739
533
778
1403
2032
2259
2029
1488
918
611
726
1273
1962
2350
2256
1773
1141
689
644
1087
1782
2322
2389
2021
1408
871
686
946
1588
2195
2411
2174
1623
1045
730
849
1407
2081
2461
2362
1888
1269
820
781
1216
1915
2433
2497
2143
1535
1014
816
1072
1715
2346
2582
2352
1810
1231
899
1009
1579
2266
2659
2577
2127
1535
1113
1075
1502
2183
2703
2764
2386
1787
1262
1069
1331
1963
2598
2823
2579
2019
1423
1086
1183
1733
2411
2793
2689
2207
1595
1136
1051
1456
2125
2633
2707
2383
1870
1456
1380
1749
2445
3120
3389
3163
2633
2076
1758
1851
2367
3011
3385
3219
2672
2022
1578
1508
1919
2559
3060
3104
2733
2197
1774
1680
2031
2709
3397
3721
3440
2889
2349
2068
2189
2721
3407
3878
3687
3094
2451
2014
1961
2387
3060
3623
3654
3169
2534
1997
1783
2034
2637
3235
3446
3152
2559
1984
1653
1750
2262
2896
3241
3090
2559
1966
1521
1467
1876
2531
3023
3053
2663
2070
1535
1357
1642
2267
2877
3083
2813
2269
1723
1430
1555
2095
2725
3081
2958
2473
1872
1443
1397
1819
2458
2928
2935
2512
1872
1325
1119
1377
1985
2559
2762
2480
1904
1307
983
1088
1625
2273
2609
2463
1965
1344
901
849
1280
1962
2451
2464
2062
1441
906
707
968
1593
2179
2365
2115
1600
1094
865
1077
1710
2437
2871
2841
2454
1974
1655
1698
2163
2853
3404
3471
3088
2532
2082
1936
2225
2850
3473
3709
3373
2781
2224
1919
2032
2559
3211
3583
3407
2864
2277
1866
1838
2251
2897
3402
3428
3015
2435
1956
1807
2105
2731
3344
3577
3301
2758
2231
1953
2091
2660
3350
3811
3652
3120
2559
2206
2189
2598
3265
3891
3919
3377
2753
2276
2134
2415
3027
3673
3906
3504
2882
2317
2025
2142
2659
3299
3665
3440
2886
2294
1898
1885
2308
2919
3343
3299
2830
2193
1655
1450
1711
2297
2838
2981
2673
2092
1481
1142
1236
1767
2358
2649
2461
1936
1307
853
791
1200
1842
2288
2278
1857
1215
679
499
789
1417
2032
2225
1971
1427
880
613
768
1354
2039
2405
2301
1855
1315
961
995
1474
2162
2663
2715
2368
1840
1404
1298
1631
2274
2865
3046
2765
2220
1683
1421
1597
2166
2796
3104
2928
2425
1851
1459
1469
1930
2596
3063
3066
2660
2079
1599
1469
1791
2410
2963
3118
2806
2247
1697
1421
1567
2115
2738
3043
2878
2384
1823
1454
1475
1935
2559
3011
3002
2608
2044
1585
1459
1773
2374
2907
3039
2732
2191
1681
1427
1569
2099
2698
2983
2805
2288
1697
1309
1322
1765
2402
2829
2795
2377
1798
1327
1200
1523
2173
2768
2963
2721
2223
1724
1487
1687
2288
2961
3280
3027
2368
1529
807
451
582
990
1278
1155
673
67
0
0
0
462
1004
1189
944
425
0
0
0
335
940
1247
1105
679
179
0
0
487
1229
1761
1810
1456
915
499
412
758
1411
1969
2098
1792
1221
686
418
579
1150
1783
2090
1934
1447
902
569
624
1125
1834
2305
2323
1967
1424
991
896
1238
1879
2442
2597
2311
1775
1264
1057
1277
1877
2529
2852
2723
2279
1773
1450
1507
1991
2649
3109
3121
2729
2192
1775
1711
2073
2707
3303
3489
3212
2694
2221
2015
2211
2770
3429
3809
3577
3034
2465
2126
2158
2605
3253
3763
3717
3221
2627
2165
2043
2352
2958
3538
3667
3274
2673
2131
1869
2006
2526
3105
3335
3088
2543
1968
1601
1621
2066
2679
3063
2985
2530
1939
1456
1328
1617
2187
2663
2704
2333
1742
1214
976
1167
1719
2306
2539
2327
1807
1211
823
816
1250
1872
2269
2213
1775
1168
701
581
897
1522
2065
2175
1871
1313
783
529
688
1239
1845
2108
1919
1409
842
485
507
970
1613
2030
1980
1522
903
418
284
595
1219
1761
1861
1535
954
422
170
342
896
1520
1790
1592
1086
537
197
237
688
1335
1749
1710
1290
720
287
187
537
1187
1741
1865
1568
1023
523
314
530
1139
1792
2070
1902
1393
846
496
540
1008
1670
2085
2064
1648
1082
641
559
897
1527
2045
2139
1809
1259
736
511
699
1266
1887
2160
1977
1472
898
539
561
1008
1654
2047
1987
1562
978
546
452
780
1411
1936
2026
1681
1115
592
365
559
1132
1750
1999
1810
1309
736
362
378
831
1457
1867
1815
1392
816
372
272
601
1219
1754
1840
1495
912
370
117
277
826
1453
1725
1511
970
382
22
59
511
1179
1606
1535
1091
476
0
0
185
814
1345
1438
1098
501
0
0
0
336
891
1137
929
390
0
0
0
0
467
832
780
353
0
0
0
0
202
652
778
525
0
0
0
0
64
551
787
623
133
0
0
0
0
384
747
714
305
0
0
0
0
291
763
880
593
64
0
0
0
209
752
1013
846
361
0
0
0
103
681
1088
1042
624
64
0
0
64
706
1315
1511
1281
802
345
174
421
1069
1759
2075
1917
1413
846
494
551
1087
1785
2231
2194
1748
1131
650
540
891
1559
2111
2228
1913
1328
785
571
811
1456
2135
2441
2273
1761
1169
811
874
1398
2103
2559
2547
2149
1578
1136
1071
1470
2165
2745
2862
2539
1987
1436
1214
1455
2105
2801
3175
3081
2655
2214
2004
2210
2847
3781
4095
4095
4095
3493
3009
2828
2993
3402
3711
3479
2887
2166
1534
1257
1472
2134
2846
3216
3099
2624
2095
1773
1861
2402
3128
3671
3641
3126
2491
2012
1904
2275
2943
3568
3728
3299
2674
2128
1894
2121
2739
3451
3839
3555
2961
2374
2023
2096
2611
3328
3903
3815
3235
2594
2128
2030
2397
3056
3705
3845
3375
2731
2158
1903
2121
2734
3411
3767
3491
2908
2314
1965
2035
2547
3248
3761
3675
3138
2515
2059
1967
2343
3027
3695
3856
3410
2791
2253
2019
2253
2880
3622
4043
3742
3102
2499
2163
2247
2785
3555
4095
4095
3495
2842
2373
2274
2643
3345
4095
4095
3691
2998
2439
2197
2407
3019
3792
4095
3850
3158
2530
2147
2177
2665
3357
3888
3751
3155
2493
2007
1879
2229
2866
3416
3491
3087
2454
1892
1639
1843
2437
3071
3335
3079
2485
1873
1495
1535
2058
2711
3134
3071
2609
2000
1521
1424
1805
2451
2995
3071
2704
2127
1602
1392
1639
2241
2863
3104
2853
2299
1711
1354
1423
1936
2597
2998
2909
2446
1843
1377
1295
1678
2342
2884
2973
2609
2009
1466
1239
1488
2114
2737
2992
2777
2250
1673
1328
1409
1947
2627
3039
2961
2481
1879
1424
1349
1745
2405
2944
3039
2682
2094
1561
1365
1632
2245
2869
3126
2880
2317
1713
1360
1447
1974
2659
3083
2998
2518
1902
1439
1363
1759
2414
2923
2990
2614
2001
1441
1209
1434
2034
2651
2885
2649
2095
1488
1135
1207
1729
2395
2798
2707
2224
1610
1158
1081
1472
2141
2667
2725
2354
1751
1200
960
1202
1826
2437
2665
2416
1859
1274
932
1021
1559
2224
2619
2545
2108
1501
1051
965
1348
2013
2544
2624
2275
1679
1130
916
1185
1831
2457
2685
2434
1872
1259
896
979
1510
2185
2581
2491
2007
1381
921
846
1264
1943
2481
2550
2195
1603
1072
855
1091
1699
2310
2545
2313
1765
1167
829
912
1459
2154
2559
2501
2047
1450
1005
939
1344
2011
2515
2559
2195
1595
1050
832
1085
1709
2319
2518
2261
1698
1101
757
834
1371
2057
2447
2352
1863
1233
772
703
1114
1795
2330
2384
2015
1415
880
673
927
1574
2199
2425
2194
1655
1088
770
882
1422
2091
2466
2384
1889
1261
811
779
1247
2000
2604
2736
2449
1970
1567
1473
1845
2559
3282
3597
3309
2661
1904
1287
1057
1280
1722
1938
1746
1230
614
185
167
638
1391
1987
2098
1753
1163
653
475
755
1409
2064
2317
2099
1561
969
641
739
1277
1981
2378
2276
1789
1166
710
650
1079
1778
2307
2357
1966
1341
790
583
847
1503
2155
2381
2145
1584
978
641
730
1289
1969
2368
2287
1813
1205
772
723
1158
1855
2384
2449
2086
1479
963
801
1098
1747
2369
2594
2350
1798
1233
929
1055
1616
2287
2665
2559
2113
1488
1047
1022
1487
2187
2715
2790
2431
1853
1354
1197
1491
2149
2782
3007
2757
2199
1616
1295
1399
1942
2605
2971
2871
2399
1807
1364
1295
1714
2348
2832
2847
2438
1818
1264
1054
1299
1915
2509
2695
2416
1834
1223
882
981
1522
2203
2543
2402
1872
1239
794
737
1174
1853
2355
2395
2007
1405
885
707
982
1643
2240
2423
2158
1588
995
687
804
1371
2047
2414
2288
1790
1137
706
682
1115
1800
2305
2327
1921
1294
763
571
837
1483
2098
2294
2023
1451
875
576
705
1264
1939
2302
2209
1743
1146
731
712
1185
1861
2367
2395
2000
1393
877
705
983
1633
2255
2452
2194
1619
1040
725
848
1423
2096
2439
2322
1842
1233
799
770
1213
1888
2375
2411
2015
1420
896
720
1001
1648
2272
2485
2237
1675
1098
786
910
1487
2158
2506
2363
1867
1246
814
778
1223
1919
2430
2451
2047
1421
895
717
997
1678
2288
2471
2221
1671
1104
799
927
1501
2188
2537
2413
1915
1297
875
848
1296
1983
2480
2501
2112
1502
1008
867
1199
1872
2479
2662
2381
1805
1219
925
1087
1660
2311
2647
2511
2010
1405
986
976
1414
2087
2559
2559
2181
1575
1079
923
1232
1888
2497
2689
2420
1869
1283
975
1143
1712
2389
2745
2614
2117
1514
1104
1095
1558
2243
2742
2783
2417
1840
1328
1153
1418
2059
2645
2841
2589
2073
1567
1357
1594
2267
3088
3651
3622
3150
2603
2230
2233
2634
3167
3418
3081
2347
1486
781
496
736
1383
2007
2224
1974
1487
981
752
944
1553
2239
2601
2485
2000
1397
985
961
1438
2126
2608
2615
2207
1594
1089
927
1242
1893
2479
2640
2359
1808
1233
917
1046
1633
2292
2615
2465
1968
1360
949
951
1427
2123
2602
2599
2196
1594
1091
944
1265
1934
2530
2695
2400
1840
1277
978
1122
1703
2362
2693
2549
2038
1439
1041
1050
1535
2246
2737
2758
2355
1777
1293
1155
1487
2160
2778
2966
2703
2146
1601
1316
1488
2086
2763
3131
2993
2480
1873
1458
1479
1989
2699
3186
3170
2736
2147
1667
1521
1851
2484
3071
3227
2896
2306
1714
1398
1535
2107
2731
3047
2847
2293
1651
1214
1179
1629
2287
2737
2704
2266
1640
1116
945
1243
1884
2459
2598
2263
1666
1091
813
978
1584
2247
2559
2416
1905
1295
885
880
1351
2029
2480
2471
2065
1459
962
819
1153
1821
2416
2559
2256
1680
1110
830
976
1559
2222
2530
2368
1860
1260
858
869
1355
2042
2529
2548
2154
1535
1057
903
1241
1910
2501
2675
2384
1818
1264
1007
1214
1813
2464
2770
2613
2114
1520
1136
1159
1657
2349
2815
2810
2391
1799
1311
1169
1490
2179
2769
2928
2623
2032
1459
1194
1385
1986
2657
2962
2772
2254
1679
1311
1351
1837
2519
2989
2974
2530
1911
1399
1255
1595
2243
2819
2960
2642
2062
1489
1216
1392
1986
2654
2956
2768
2221
1610
1209
1226
1712
2385
2849
2832
2407
1803
1304
1174
1514
2167
2743
2894
2585
1994
1415
1136
1307
1890
2539
2835
2647
2131
1535
1179
1198
1682
2368
2815
2778
2343
1737
1241
1104
1426
2064
2632
2757
2449
1875
1309
1045
1226
1829
2482
2787
2608
2084
1470
1088
1117
1611
2288
2736
2702
2273
1658
1173
1059
1411
2087
2671
2830
2515
1937
1374
1121
1327
1953
2639
2981
2834
2341
1776
1408
1439
1949
2635
3088
3056
2634
2058
1617
1584
2035
2815
3583
3998
3738
3207
2767
2642
2947
3725
4095
4095
4095
3433
2589
1965
1776
2107
2688
3105
3066
2656
2117
1713
1675
2099
2824
3511
3754
3405
2832
2326
2102
2305
2915
3706
4095
3967
3284
2669
2285
2320
2817
3569
4095
4095
3557
2871
2377
2256
2609
3293
4058
4095
3759
3055
2481
2227
2418
3027
3825
4095
3942
3215
2588
2234
2273
2753
3460
4095
4095
3467
2817
2341
2235
2590
3280
4035
4095
3693
3002
2437
2187
2384
2992
3770
4095
3929
3235
2618
2242
2276
2763
3500
4095
4080
3433
2778
2304
2202
2559
3261
3995
4095
3639
2951
2378
2128
2320
2927
3651
4058
3709
3046
2417
2025
2047
2517
3183
3651
3531
2978
2320
1799
1649
1979
2609
3127
3195
2800
2166
1568
1269
1424
1984
2584
2813
2559
1997
1354
945
945
1417
2075
2467
2387
1920
1280
772
640
974
1629
2169
2278
1950
1347
780
511
709
1314
1971
2251
2043
1494
891
526
549
1035
1715
2139
2082
1615
982
511
409
784
1478
2047
2163
1821
1213
651
402
613
1231
1894
2173
1983
1443
842
487
550
1047
1727
2153
2093
1626
1008
550
449
839
1491
2039
2145
1808
1216
666
433
653
1285
1936
2199
1984
1442
843
480
530
1043
1744
2175
2115
1655
1034
561
463
848
1535
2112
2211
1857
1253
702
471
706
1338
1981
2235
2029
1484
869
511
590
1122
1819
2243
2174
1693
1054
575
464
841
1510
2066
2161
1830
1248
722
507
737
1354
2000
2256
2039
1491
912
584
659
1179
1853
2265
2199
1742
1122
662
560
942
1622
2176
2269
1914
1309
752
523
730
1365
2015
2279
2064
1507
911
571
640
1166
1853
2267
2198
1723
1121
667
583
959
1648
2223
2320
1967
1355
802
587
816
1419
2076
2322
2112
1559
967
625
692
1214
1903
2319
2250
1804
1181
720
627
1019
1713
2272
2373
2042
1477
961
759
1010
1658
2302
2545
2324
1777
1179
817
885
1425
2109
2507
2427
1966
1355
891
814
1209
1875
2413
2496
2147
1564
1035
813
1046
1680
2288
2530
2336
1822
1238
886
947
1459
2134
2531
2465
2035
1453
1019
948
1345
2017
2544
2619
2256
1659
1115
895
1148
1791
2425
2647
2409
1859
1267
918
991
1520
2197
2595
2512
2059
1455
1008
946
1359
2043
2595
2675
2324
1737
1201
988
1246
1881
2521
2768
2541
1998
1410
1073
1161
1706
2396
2810
2736
2279
1673
1221
1154
1555
2226
2749
2813
2437
1865
1343
1143
1402
2020
2649
2874
2642
2094
1501
1170
1266
1813
2479
2873
2778
2307
1712
1265
1200
1625
2317
2864
2931
2545
1946
1408
1207
1467
2106
2734
2960
2709
2160
1569
1219
1322
1876
2559
2992
2928
2473
1886
1459
1411
1828
2496
3021
3082
2694
2109
1575
1366
1639
2273
2881
3105
2832
2270
1682
1351
1458
2004
2693
3101
2999
2512
1911
1468
1404
1814
2492
3031
3099
2717
2128
1600
1402
1679
2307
2942
3171
2911
2355
1779
1446
1520
2063
2736
3139
3041
2582
2011
1629
1649
2160
2942
3682
3954
3553
2991
2549
2438
2777
3511
4095
4095
3929
3036
2199
1618
1520
1945
2549
2899
2822
2399
1861
1490
1509
1981
2701
3280
3379
3012
2437
1925
1734
1985
2608
3248
3503
3232
2662
2085
1749
1856
2397
3100
3554
3455
2928
2295
1840
1794
2224
2912
3493
3571
3151
2534
2005
1825
2097
2721
3359
3629
3337
2769
2209
1899
2006
2550
3248
3707
3559
3009
2397
1968
1929
2343
3019
3625
3731
3281
2666
2145
1945
2222
2850
3536
3846
3495
2879
2298
1991
2132
2691
3407
3914
3743
3152
2519
2101
2074
2513
3222
3907
3997
3451
2809
2293
2116
2406
3083
3870
4095
3797
3125
2535
2217
2304
2842
3597
4095
3987
3312
2671
2228
2179
2606
3310
3988
4031
3440
2757
2207
2000
2269
2883
3522
3765
3392
2763
2160
1822
1926
2466
3135
3530
3367
2826
2202
1749
1697
2111
2775
3314
3366
2946
2334
1810
1631
1918
2548
3184
3408
3120
2531
1957
1637
1762
2314
2991
3410
3308
2796
2192
1752
1712
2131
2805
3351
3395
2975
2360
1837
1655
1942
2586
3208
3434
3140
2551
1967
1647
1765
2320
2992
3377
3241
2723
2112
1682
1657
2095
2767
3290
3327
2911
2315
1806
1631
1921
2549
3184
3421
3155
2596
2026
1712
1829
2371
3038
3410
3257
2731
2124
1698
1651
2097
2785
3319
3334
2895
2292
1786
1615
1915
2559
3211
3450
3167
2603
2033
1731
1856
2406
3088
3499
3357
2830
2240
1867
1936
2484
3342
4095
4095
4095
3611
3233
3227
3756
4095
4095
4095
4095
4095
4095
4095
4095
4095
4095
4095
4095
4095
4095
4095
4095
4095
4095
4095
4095
4095
4095
4095
4095
4095
4095
4095
4095
4095
4095
4095
4095
4095
4095
4095
4095
4095
4095
4095
4095
4095
4095
4095
4095
4095
4095
4095
4095
4095
4095
4095
4095
4095
4095
4095
4095
4095
4095
4095
4095
4095
4095
4095
4095
4095
4095
4095
4095
4095
4095
4095
4095
4095
4095
4095
4095
4095
4095
4095
4095
4095
4095
4095
4095
4095
4095
4095
4095
4095
4095
4095
4095
4095
4095
4095
4095
4095
4095
4095
4095
4095
4095
4095
4095
4095
4095
4095
4095
4095
4095
4095
4095
4095
4095
4095
4095
4095
4095
4095
4095
4095
4041
3511
3324
3601
4095
4095
4095
4095
3823
3232
2922
3019
3598
4095
4095
4095
3753
3099
2695
2672
3105
3905
4095
4095
3775
3066
2545
2357
2630
3267
4022
4095
3712
3001
2389
2081
2214
2781
3489
3935
3671
3042
2388
1955
1927
2366
3031
3569
3567
3063
2417
1886
1713
2014
2643
3246
3398
3031
2408
1803
1479
1616
2161
2800
3123
2949
2423
1808
1385
1365
1822
2477
2930
2896
2448
1810
1281
1105
1405
2029
2597
2751
2457
1872
1269
954
1086
1641
2278
2559
2407
1895
1319
970
1036
1583
2352
2915
3015
2702
2177
1754
1694
2093
2775
3383
3454
2912
2063
1169
589
498
903
1461
1723
1535
1034
469
126
176
693
1446
1968
1983
1573
960
494
363
688
1357
1951
2114
1807
1222
651
366
528
1106
1764
2097
1951
1435
831
439
434
891
1570
2023
2005
1577
959
471
339
667
1328
1916
2069
1766
1191
643
384
550
1142
1812
2129
1969
1453
848
458
465
937
1646
2109
2096
1660
1040
560
432
784
1469
2082
2256
1968
1385
817
553
719
1298
1951
2250
2065
1535
941
559
578
1072
1776
2256
2256
1836
1237
753
624
955
1635
2224
2373
2090
1535
973
717
896
1484
2132
2432
2269
1743
1136
757
788
1281
1973
2420
2371
1912
1263
739
589
901
1535
2098
2217
1892
1296
718
418
571
1143
1792
2079
1877
1328
726
307
322
799
1498
1953
1915
1456
832
342
208
554
1206
1792
1917
1597
993
432
160
321
902
1570
1863
1695
1200
618
240
274
759
1456
1911
1875
1429
817
366
256
609
1266
1835
1949
1617
1023
493
240
417
1002
1658
1933
1731
1222
619
245
274
771
1470
1918
1878
1444
832
348
231
591
1267
1856
1986
1673
1091
543
286
469
1062
1714
2000
1808
1277
685
320
384
910
1645
2113
2095
1669
1069
593
460
798
1457
1995
2102
1772
1187
635
359
522
1095
1737
2025
1850
1315
704
322
342
832
1533
1968
1914
1454
839
378
281
656
1348
1941
2075
1743
1138
574
303
473
1071
1726
2000
1801
1259
656
277
317
810
1504
1951
1897
1437
804
330
221
577
1254
1835
1977
1648
1059
507
267
473
1087
1748
2030
1827
1278
661
272
292
780
1467
1920
1887
1433
827
359
251
618
1290
1854
1957
1616
1007
448
195
394
982
1680
1978
1791
1237
635
269
319
811
1498
1936
1893
1442
838
382
285
657
1349
1927
2036
1699
1092
543
295
474
1077
1731
2014
1843
1329
748
363
395
890
1584
2002
1941
1476
845
368
272
645
1335
1915
2037
1711
1113
567
338
572
1194
1847
2127
1909
1344
725
351
398
898
1597
2028
1979
1527
912
433
324
686
1362
1935
2039
1706
1105
576
343
561
1178
1841
2123
1933
1408
829
464
511
1017
1719
2128
2046
1575
950
485
402
783
1462
2016
2115
1769
1164
612
375
561
1191
1872
2193
2071
1627
1133
866
1035
1648
2409
2909
2915
2483
1871
1330
1074
1185
1529
1750
1587
1057
341
0
0
0
362
973
1274
1123
641
122
0
0
505
1232
1699
1674
1248
675
247
187
600
1334
1955
2108
1810
1247
721
511
757
1406
2080
2354
2160
1639
1071
736
828
1378
2090
2496
2448
2005
1406
944
867
1277
1981
2554
2673
2345
1764
1251
1061
1317
1967
2619
2869
2657
2119
1535
1190
1277
1821
2513
2961
2917
2465
1872
1419
1346
1755
2433
3007
3121
2763
2165
1621
1419
1693
2348
3025
3339
3139
2609
2059
1718
1792
2315
2995
3455
3380
2885
2275
1819
1759
2175
2869
3487
3601
3179
2541
1987
1750
1987
2622
3287
3570
3293
2695
2078
1693
1741
2242
2907
3319
3214
2691
2043
1554
1456
1829
2469
2967
3018
2628
2022
1456
1216
1425
2022
2637
2859
2608
2032
1417
1055
1109
1622
2285
2677
2582
2113
1481
1006
924
1335
2007
2538
2624
2271
1671
1142
937
1191
1826
2449
2690
2464
1919
1307
936
997
1520
2192
2592
2504
2044
1451
1002
933
1342
2021
2548
2627
2265
1676
1141
914
1159
1785
2405
2642
2416
1856
1264
910
1001
1535
2228
2635
2559
2115
1510
1055
982
1397
2080
2611
2679
2320
1723
1182
974
1242
1879
2496
2725
2480
1931
1328
974
1057
1584
2249
2634
2551
2098
1488
1044
986
1406
2090
2613
2683
2323
1730
1195
977
1232
1859
2487
2719
2493
1955
1373
1040
1134
1680
2363
2768
2688
2210
1591
1138
1085
1507
2201
2737
2803
2421
1809
1249
1023
1286
1923
2544
2774
2533
1982
1390
1063
1168
1713
2385
2779
2691
2223
1616
1170
1127
1535
2238
2776
2847
2480
1891
1357
1168
1441
2096
2729
2977
2749
2205
1649
1342
1452
1987
2655
3051
2963
2491
1897
1450
1399
1834
2502
3038
3109
2707
2113
1582
1376
1655
2307
2959
3200
2953
2415
1857
1555
1691
2266
2987
3451
3379
2896
2320
1902
1873
2315
3027
3665
3773
3312
2694
2179
1991
2279
2935
3657
4002
3619
2970
2384
2085
2231
2834
3725
4095
4095
3887
3295
2964
3007
3543
4095
4095
4095
4095
3898
3179
2721
2654
2960
3347
3379
2978
2352
1751
1443
1595
2192
2927
3399
3344
2863
2271
1841
1809
2265
2987
3611
3715
3258
2626
2096
1885
2153
2782
3447
3699
3347
2726
2112
1751
1849
2410
3093
3501
3342
2789
2162
1722
1669
2105
2799
3343
3392
2965
2357
1829
1634
1890
2511
3123
3344
3082
2513
1936
1616
1737
2297
2983
3403
3296
2787
2192
1775
1754
2208
2899
3456
3518
3099
2491
1983
1808
2097
2738
3394
3664
3350
2768
2209
1899
2003
2559
3297
3813
3680
3133
2525
2121
2097
2542
3273
3987
4071
3491
2822
2294
2119
2398
3062
3823
4095
3669
2974
2358
2032
2158
2711
3441
3938
3717
3081
2403
1922
1845
2243
2883
3399
3406
2931
2274
1697
1471
1727
2349
2944
3130
2815
2214
1600
1258
1360
1908
2559
2913
2778
2272
1649
1202
1168
1634
2347
2885
2944
2559
1967
1427
1217
1471
2090
2676
2866
2580
1989
1377
1033
1133
1682
2350
2704
2559
2036
1391
930
880
1330
2022
2528
2547
2141
1510
975
799
1093
1743
2352
2547
2283
1711
1129
815
955
1562
2259
2655
2537
2052
1436
1017
1008
1491
2214
2746
2797
2405
1801
1264
1082
1375
2039
2678
2891
2613
2023
1423
1095
1207
1787
2471
2846
2723
2206
1559
1093
1047
1503
2202
2714
2737
2314
1670
1107
900
1181
1831
2439
2627
2343
1743
1131
786
902
1472
2165
2523
2395
1861
1233
795
775
1237
1927
2426
2447
2028
1391
850
679
981
1660
2285
2484
2219
1639
1013
698
815
1381
2081
2453
2347
1840
1216
784
757
1218
1904
2398
2416
2023
1395
842
655
941
1584
2179
2334
2026
1420
816
508
640
1198
1901
2257
2129
1619
979
541
496
943
1657
2179
2223
1818
1187
659
481
791
1488
2119
2310
2023
1425
823
507
645
1237
1951
2320
2185
1664
1019
569
528
978
1712
2240
2308
1966
1413
973
902
1325
2089
2781
3055
2835
2283
1709
1347
1362
1723
2122
2176
1791
1088
349
0
0
265
981
1567
1669
1326
752
270
125
455
1167
1845
2093
1845
1274
706
429
594
1213
1927
2288
2147
1625
1001
580
560
1021
1738
2245
2271
1847
1214
688
529
843
1505
2118
2301
2011
1414
815
498
638
1232
1937
2294
2160
1644
1007
573
551
1015
1738
2245
2273
1862
1232
704
540
858
1535
2165
2337
2042
1450
857
563
727
1344
2064
2423
2295
1792
1172
751
745
1221
1936
2442
2463
2042
1439
927
757
1065
1735
2357
2554
2288
1706
1121
816
959
1558
2239
2559
2411
1883
1248
827
817
1295
1997
2475
2462
2032
1378
829
647
944
1601
2177
2305
1964
1327
705
378
501
1067
1761
2093
