2106
2031
1963
1925
1945
2023
2112
2162
2160
2081
1993
1951
1955
1993
2066
2123
2128
2077
1984
1917
1904
1954
2042
2128
2160
2128
2043
1950
1922
1954
2046
2160
2235
2235
2160
2069
2002
2000
2055
2128
2187
2199
2150
2069
1998
1973
2018
2107
2177
2192
2157
2080
2006
1984
2022
2091
2185
2254
2247
2176
2085
2023
2031
2092
2176
2237
2239
2177
2074
1983
1967
2019
2118
2208
2233
2193
2110
2013
1984
2011
2095
2177
2237
2224
2144
2043
1995
2005
2068
2153
2222
2237
2187
2101
2026
2000
2032
2111
2177
2201
2161
2082
2005
1969
1994
2075
2163
2210
2205
2141
2044
1968
1963
2035
2150
2214
2213
2160
2081
2006
1989
2034
2108
2161
2186
2160
2093
2003
1974
2005
2093
2176
2222
2192
2112
2026
1981
1982
2035
2136
2198
2211
2145
2044
1953
1916
1966
2063
2154
2197
2166
2077
1979
1927
1949
2026
2121
2163
2156
2107
2010
1958
1966
2029
2134
2210
2217
2147
2047
1963
1936
1971
2064
2148
2192
2176
2107
2006
1946
1960
2033
2128
2177
2163
2099
1999
1931
1919
1985
2091
2153
2155
2096
2012
1936
1906
1945
2034
2128
2160
2119
2029
1961
1925
1936
2015
2106
2166
2163
2097
1989
1907
1879
1943
2047
2137
2160
2109
2011
1930
1904
1930
2013
2096
2121
2096
2007
1914
1857
1878
1963
2061
2105
2083
2015
1922
1854
1840
1899
2000
2087
2098
2046
1959
1887
1872
1919
2001
2097
2141
2106
1997
1901
1850
1873
1962
2064
2115
2098
2032
1953
1902
1905
1969
2071
2140
2145
2083
1968
1887
1867
1916
2000
2090
2119
2080
1990
1904
1865
1889
1983
2090
2150
2131
2047
1964
1903
1894
1954
2036
2096
2092
2032
1951
1873
1853
1871
1979
2070
2101
2064
1973
1895
1871
1907
1999
2096
2129
2109
2033
1947
1879
1878
1937
2034
2099
2102
2046
1955
1877
1851
1907
1995
2087
2115
2067
1967
1874
1841
1874
1953
2053
2111
2094
2014
1935
1888
1903
1969
2065
2127
2128
2074
1982
1904
1897
1966
2070
2160
2192
2163
2085
1989
1936
1959
2046
2149
2202
2171
2075
1939
1862
1850
1904
1999
2071
2080
2019
1943
1867
1839
1877
1970
2065
2103
2073
1984
1901
1870
1889
1978
2071
2115
2098
2047
1964
1886
1874
1933
2022
2111
2127
2066
1959
1866
1819
1829
1905
1981
2027
2025
1986
1971
2070
2288
2583
2866
3071
3119
2985
2758
2496
2266
2161
2161
2177
2182
2154
2081
1993
1950
1972
2038
2098
2103
2043
1950
1863
1829
1836
1898
1984
2043
2035
1959
1856
1778
1775
1846
1942
2011
2029
1976
1895
1822
1791
1819
1911
1991
2019
1985
1908
1829
1777
1806
1903
2003
2066
2054
1980
1889
1838
1846
1913
2002
2075
2074
2006
1907
1827
1808
1854
1946
2034
2084
2063
1979
1886
1823
1839
1916
2009
2077
2061
1971
1879
1818
1815
1881
1975
2045
2064
2014
1927
1858
1834
1874
1969
2075
2117
2083
1984
1891
1834
1855
1939
2032
2105
2097
2031
1946
1887
1886
1948
2047
2127
2142
2087
1983
1904
1883
1923
2021
2119
2165
2141
2063
1978
1940
1952
2027
2126
2192
2201
2138
2042
1970
1954
1998
2085
2160
2181
2147
2067
1987
1966
2018
2126
2217
2260
2229
2127
2015
1950
1951
2054
2157
2214
2205
2147
2080
2021
2023
2089
2176
2253
2283
2222
2123
2030
1984
2015
2109
2186
2215
2183
2102
2001
1945
1954
2029
2118
2167
2147
2071
1968
1879
1867
1921
2032
2115
2124
2071
1977
1910
1887
1936
2035
2127
2158
2130
2061
1967
1909
1905
1965
2044
2108
2103
2036
1947
1869
1840
1883
1975
2077
2109
2064
1969
1891
1863
1903
1985
2075
2119
2097
2001
1901
1839
1843
1926
2024
2089
2085
2007
1910
1840
1826
1882
1987
2081
2112
2064
1959
1873
1851
1889
1973
2064
2118
2099
2009
1918
1873
1889
1970
2064
2113
2096
2017
1920
1856
1855
1919
2015
2096
2116
2076
1990
1904
1867
1906
2003
2107
2155
2129
2043
1952
1903
1910
1979
2073
2128
2121
2036
1952
1887
1877
1931
2017
2093
2103
2059
1967
1887
1855
1882
1965
2045
2089
2064
1987
1905
1861
1877
1953
2043
2096
2079
2000
1902
1840
1838
1888
1991
2069
2075
2014
1906
1834
1818
1877
1974
2064
2096
2055
1965
1872
1818
1831
1907
1990
2059
2046
1975
1882
1839
1840
1893
1978
2045
2064
2017
1936
1851
1820
1862
1966
2067
2112
2091
1998
1898
1835
1842
1923
2033
2100
2082
2013
1934
1869
1863
1923
2015
2093
2109
2064
1968
1883
1850
1895
1987
2079
2111
2077
1988
1904
1845
1854
1922
2009
2067
2065
1993
1899
1826
1840
1909
2003
2082
2096
2058
1969
1893
1872
1910
1987
2079
2128
2102
2013
1920
1867
1872
1933
2010
2069
2061
1994
1915
1840
1820
1879
1987
2091
2119
2059
1946
1853
1814
1849
1934
2023
2064
2032
1951
1867
1819
1822
1904
2007
2089
2084
1998
1902
1839
1836
1897
1995
2070
2075
2003
1923
1840
1807
1847
1951
2047
2102
2078
1980
1885
1818
1823
1902
1987
2047
2057
1997
1904
1830
1808
1867
1958
2021
2039
2003
1929
1842
1814
1851
1936
2029
2062
2019
1937
1861
1815
1839
1926
2012
2079
2071
2011
1914
1841
1831
1887
1969
2035
2058
2015
1941
1886
1870
1905
1987
2078
2111
2089
1989
1897
1840
1856
1923
2026
2096
2101
2030
1927
1851
1845
1904
2001
2082
2096
2043
1949
1859
1840
1885
1979
2083
2129
2109
2007
1919
1889
1919
1982
2064
2118
2114
2053
1966
1895
1883
1947
2053
2122
2128
2078
1986
1915
1885
1915
1998
2094
2135
2125
2061
1974
1927
1933
1996
2090
2143
2148
2096
2004
1935
1919
2003
2130
2219
2237
2189
2097
1997
1946
1979
2085
2176
2213
2190
2128
2047
2009
2014
2096
2206
2283
2286
2222
2119
2031
1986
2019
2102
2162
2164
2100
1995
1917
1877
1904
1987
2096
2142
2121
2030
1923
1867
1872
1936
2042
2114
2112
2047
1963
1901
1904
1968
2083
2164
2171
2112
2007
1924
1898
1922
1984
2038
2054
1996
1905
1808
1754
1777
1898
2085
2275
2443
2589
2693
2777
2825
2854
2835
2736
2531
2283
2037
1872
1824
1876
1984
2094
2148
2131
2064
1959
1895
1887
1939
2026
2089
2087
2021
1924
1850
1823
1869
1959
2041
2081
2035
1930
1843
1797
1821
1915
2009
2028
2001
1925
1841
1793
1808
1886
1987
2055
2055
1980
1883
1831
1829
1893
1989
2063
2086
2036
1943
1851
1808
1842
1931
2033
2096
2081
2032
1958
1891
1874
1920
1999
2053
2065
2015
1931
1867
1845
1887
1977
2066
2097
2065
1979
1902
1874
1921
2013
2103
2138
2113
2034
1943
1891
1899
1969
2068
2141
2157
2098
1994
1911
1898
1979
2097
2185
2188
2122
2014
1919
1889
1932
2022
2117
2177
2167
2086
1995
1936
1935
2005
2116
2179
2166
2097
2001
1936
1927
1989
2099
2192
2225
2178
2090
2011
1977
1990
2066
2166
2217
2194
2114
2013
1953
1969
2063
2169
2229
2224
2163
2073
2002
1993
2057
2154
2234
2263
2211
2115
2027
1975
1991
2080
2175
2215
2195
2117
2015
1961
1955
2011
2098
2162
2177
2122
2023
1937
1919
1967
2069
2147
2160
2112
2027
1942
1910
1943
2031
2112
2129
2085
1989
1898
1838
1846
1919
2015
2089
2101
2032
1931
1832
1793
1849
1967
2066
2096
2064
1990
1922
1881
1898
1971
2058
2095
2074
1989
1883
1815
1822
1890
1995
2063
2064
2000
1914
1838
1820
1878
1975
2063
2091
2047
1951
1865
1822
1841
1919
2007
2074
2066
1984
1899
1853
1855
1914
2000
2064
2062
2005
1932
1859
1840
1887
1968
2042
2071
2037
1942
1855
1820
1854
1943
2037
2086
2055
1969
1871
1829
1854
1945
2064
2130
2139
2079
1978
1906
1884
1929
2016
2110
2146
2119
2023
1943
1910
1943
2031
2126
2179
2160
2084
1993
1949
1962
2032
2121
2176
2174
2110
2010
1935
1909
1961
2068
2160
2193
2155
2066
1969
1930
1945
2023
2118
2159
2126
2063
1968
1911
1903
1969
2068
2129
2130
2091
2001
1935
1919
1969
2077
2160
2174
2122
2032
1950
1902
1918
1999
2107
2173
2163
2106
2018
1961
1969
2045
2131
2180
2179
2117
2011
1935
1920
1975
2066
2150
2201
2186
2115
2022
1978
2000
2083
2167
2212
2198
2118
2025
1969
1975
2039
2133
2199
2199
2134
2039
1959
1951
2010
2111
2194
2235
2199
2112
2030
1985
1991
2080
2150
2181
2159
2075
1975
1919
1927
2006
2131
2217
2213
2127
2006
1929
1910
1967
2077
2176
2222
2176
2086
1999
1963
1997
2096
2190
2227
2199
2123
2023
1966
1968
2037
2135
2194
2204
2145
2045
1970
1967
2023
2115
2195
2214
2161
2079
1998
1955
1969
2058
2153
2191
2175
2106
2007
1951
1952
2018
2126
2192
2192
2128
2030
1954
1946
2005
2101
2170
2182
2138
2058
1982
1946
1969
2045
2128
2156
2137
2081
1998
1950
1957
2019
2115
2178
2178
2114
2009
1931
1913
1970
2064
2137
2160
2119
2032
1954
1905
1925
2002
2096
2143
2127
2043
1947
1894
1909
1984
2075
2139
2148
2089
2000
1937
1929
1981
2073
2153
2187
2141
2034
1957
1924
1953
2027
2105
2147
2125
2064
1975
1918
1921
1991
2097
2159
2172
2117
2025
1941
1927
1968
2047
2114
2138
2090
1994
1914
1885
1917
2003
2098
2139
2112
2025
1925
1872
1890
1970
2082
2159
2160
2107
2019
1963
1968
2023
2112
2185
2192
2145
2047
1967
1929
1959
2053
2158
2221
2211
2147
2062
2000
2002
2080
2165
2221
2207
2131
2014
1920
1882
1914
2005
2089
2098
2044
1950
1867
1831
1866
1949
2037
2086
2064
1989
1898
1843
1856
1905
1992
2045
2063
2015
1932
1863
1859
1914
1989
2063
2077
2038
1952
1861
1810
1814
1882
1952
1974
1963
1902
1857
1875
2003
2249
2539
2800
2959
2961
2845
2670
2466
2290
2163
2081
2003
1936
1869
1815
1821
1872
1943
2011
2045
2006
1919
1809
1744
1731
1797
1887
1964
1985
1934
1843
1775
1755
1797
1885
1962
1969
1910
1808
1721
1686
1729
1831
1926
1983
1969
1901
1795
1727
1729
1787
1877
1946
1953
1899
1805
1744
1735
1783
1875
1965
1999
1968
1883
1791
1735
1754
1846
1943
1998
1969
1894
1811
1744
1743
1792
1893
1962
1984
1936
1854
1781
1763
1811
1909
1993
2019
1977
1899
1811
1767
1799
1901
2000
2033
2004
1923
1830
1763
1774
1845
1936
1993
1997
1947
1865
1785
1759
1819
1921
2019
2055
2016
1936
1854
1818
1853
1930
2015
2065
2046
1967
1876
1829
1838
1905
1998
2069
2082
2025
1947
1883
1866
1920
2019
2111
2142
2108
2030
1953
1919
1936
2017
2118
2182
2177
2115
2022
1965
1968
2035
2131
2193
2194
2127
2006
1914
1879
1927
2027
2115
2147
2112
2031
1958
1926
1963
2031
2115
2161
2139
2065
1968
1910
1908
1962
2062
2130
2157
2111
2021
1937
1901
1927
2011
2106
2138
2102
2013
1917
1873
1900
1983
2079
2122
2084
2001
1908
1856
1870
1936
2027
2089
2073
2005
1919
1851
1835
1887
1971
2047
2071
2027
1942
1863
1831
1859
1946
2034
2096
2084
2003
1911
1851
1859
1927
2018
2087
2094
2015
1906
1821
1801
1862
1966
2060
2069
2019
1931
1854
1801
1819
1903
2009
2087
2076
1993
1893
1830
1834
1904
1997
2064
2067
2002
1904
1818
1779
1823
1936
2059
2103
2059
1955
1860
1826
1852
1929
2015
2077
2059
1971
1867
1799
1795
1869
1977
2046
2055
1990
1897
1808
1777
1831
1933
2023
2063
2015
1927
1843
1822
1842
1920
2021
2077
2061
1986
1895
1825
1819
1893
2000
2090
2112
2070
1969
1898
1885
1929
2011
2086
2102
2060
1971
1901
1857
1871
1956
2061
2111
2112
2047
1940
1872
1872
1939
2032
2101
2102
2032
1936
1862
1849
1896
1998
2102
2141
2096
1999
1910
1876
1907
1985
2081
2124
2110
2038
1955
1913
1930
2010
2110
2175
2174
2122
2030
1935
1901
1943
2055
2145
2167
2131
2047
1968
1920
1925
1996
2077
2117
2090
2013
1933
1898
1920
1994
2088
2131
2130
2081
1987
1906
1877
1915
2007
2091
2118
2064
1968
1881
1839
1862
1950
2034
2096
2096
2026
1925
1856
1857
1951
2071
2143
2140
2062
1936
1840
1815
1865
1941
2005
2026
1971
1877
1792
1744
1773
1839
1907
1938
1920
1831
1722
1638
1635
1699
1783
1851
1851
1786
1680
1609
1580
1605
1695
1774
1811
1806
1733
1657
1631
1675
1774
1877
1936
1931
1869
1779
1728
1734
1807
1919
1990
1998
1937
1847
1773
1767
1825
1930
2019
2047
2015
1946
1865
1814
1842
1937
2032
2091
2066
1995
1923
1894
1919
1985
2091
2154
2144
2074
1975
1902
1890
1938
2035
2134
2165
2135
2059
1961
1917
1936
2019
2118
2171
2160
2096
1999
1934
1928
1995
2080
2154
2173
2125
2032
1950
1921
1979
2089
2176
2210
2189
2096
1991
1942
1964
2047
2146
2199
2189
2128
2047
1992
1993
2046
2131
2178
2163
2099
2015
1947
1936
1993
2096
2185
2213
2175
2091
1988
1943
1967
2046
2149
2195
2178
2091
2000
1939
1951
2032
2143
2225
2240
2190
2099
2029
2007
2064
2149
2218
2239
2207
2139
2071
2042
2083
2173
2256
2295
2283
2198
2093
2016
2000
2065
2161
2240
2277
2256
2184
2108
2084
2116
2212
2293
2317
2269
2173
2077
2027
2029
2096
2174
2215
2195
2123
2017
1942
1932
2000
2097
2173
2178
2122
2026
1945
1927
1979
2081
2160
2183
2146
2067
1976
1936
1962
2037
2123
2146
2124
2064
1984
1931
1926
1983
2061
2096
2075
2019
1927
1855
1864
1955
2130
2335
2528
2695
2813
2871
2906
2911
2879
2801
2623
2387
2170
2000
1924
1940
2027
2135
2196
2192
2143
2045
1949
1892
1911
1994
2070
2094
2064
1973
1879
1837
1863
1947
2032
2082
2042
1955
1860
1787
1775
1840
1935
1991
1983
1921
1827
1734
1703
1739
1835
1925
1971
1969
1898
1808
1766
1792
1866
1968
2018
2001
1936
1844
1776
1769
1854
1974
2070
2083
2027
1931
1852
1838
1886
1968
2033
2065
2023
1935
1855
1822
1861
1953
2045
2096
2084
2009
1911
1840
1825
1887
1988
2077
2090
2021
1924
1845
1815
1855
1952
2044
2089
2054
1967
1877
1830
1858
1937
2027
2085
2071
2000
1920
1872
1875
1957
2058
2125
2126
2039
1940
1878
1872
1931
2029
2122
2151
2108
2013
1933
1904
1932
2017
2123
2181
2149
2057
1951
1904
1919
2002
2109
2179
2191
2135
2038
1962
1939
1971
2059
2148
2183
2140
2059
1981
1963
2003
2097
2177
2223
2209
2134
2032
1964
1962
2032
2119
2183
2200
2150
2047
1959
1921
1963
2075
2179
2214
2170
2076
1968
1920
1939
2014
2101
2159
2141
2058
1955
1897
1889
1947
2047
2135
2146
2077
1968
1885
1867
1927
2031
2126
2137
2080
1963
1840
1777
1780
1857
1950
2000
1993
1921
1825
1755
1753
1823
1930
1997
2002
1965
1893
1835
1813
1859
1936
2032
2067
2025
1936
1839
1799
1823
1904
1999
2056
2044
1975
1904
1856
1851
1903
1975
2027
2047
2014
1934
1870
1861
1903
1975
2039
2064
2022
1949
1870
1827
1845
1920
2001
2073
2076
2011
1919
1857
1853
1918
2005
2077
2087
2026
1937
1878
1867
1915
2000
2081
2109
2080
2001
1923
1879
1905
1984
2077
2126
2115
2062
1972
1915
1920
1978
2041
2096
2096
2036
1943
1877
1867
1915
2005
2099
2128
2093
2006
1916
1868
1878
1966
2064
2115
2107
2027
1926
1858
1871
1933
2032
2105
2112
2059
1959
1878
1862
1919
2020
2110
2126
2077
1975
1891
1855
1877
1971
2083
2146
2141
2065
1962
1894
1895
1964
2075
2143
2139
2078
1981
1898
1871
1922
2034
2129
2156
2118
2018
1918
1873
1905
2001
2119
2171
2155
2077
1975
1904
1899
1962
2069
2143
2163
2112
2016
1929
1902
1942
2035
2125
2155
2115
2015
1921
1873
1899
1987
2053
2091
2069
2022
1949
1902
1899
1954
2047
2129
2148
2087
1982
1891
1863
1911
2008
2096
2113
2075
1989
1904
1854
1867
1938
2027
2091
2091
2024
1922
1853
1858
1934
2042
2123
2128
2079
1980
1901
1877
1917
2001
2097
2139
2098
1995
1905
1871
1901
1968
2047
2107
2101
2032
1957
1901
1904
1959
2034
2112
2132
2086
1981
1894
1873
1933
2035
2125
2159
2128
2035
1934
1886
1891
1979
2073
2130
2133
2068
1964
1904
1904
1968
2061
2128
2135
2083
1984
1913
1903
1943
2031
2106
2135
2106
2012
1915
1873
1890
1967
2055
2125
2127
2043
1937
1865
1857
1916
2014
2087
2094
2032
1933
1858
1845
1891
1975
2058
2071
2054
2000
1922
1893
1907
1977
2063
2107
2096
2029
1936
1869
1874
1936
2021
2076
2054
1984
1898
1842
1843
1892
1980
2057
2073
2018
1922
1832
1775
1785
1857
1943
1996
1965
1879
1775
1699
1701
1765
1868
1942
1962
1929
1847
1790
1792
1853
1927
1988
2014
1988
1918
1827
1779
1801
1881
1983
2039
2033
1963
1872
1809
1807
1858
1953
2033
2069
2016
1928
1859
1835
1871
1965
2057
2098
2084
1999
1913
1867
1882
1955
2038
2110
2106
2035
1936
1873
1878
1943
2059
2141
2160
2117
2029
1947
1927
1971
2075
2163
2193
2159
2069
1970
1911
1925
1989
2065
2112
2095
2000
1904
1840
1840
1921
2021
2096
2112
2053
1954
1873
1851
1891
1991
2082
2112
2071
1977
1891
1854
1882
1977
2076
2133
2122
2038
1936
1862
1853
1919
2007
2093
2096
2025
1917
1815
1783
1837
1967
2128
2271
2384
2500
2627
2761
2873
2957
2966
2851
2617
2320
2047
1893
1871
1947
2075
2162
2179
2131
2033
1948
1898
1911
1983
2063
2095
2063
1963
1875
1836
1859
1936
2038
2097
2071
1984
1890
1823
1827
1886
1983
2062
2067
2002
1927
1859
1835
1875
1979
2074
2099
2065
1973
1873
1829
1862
1955
2063
2114
2096
2016
1929
1872
1872
1947
2035
2100
2112
2058
1968
1897
1869
1904
2003
2098
2122
2090
1991
1895
1855
1886
1968
2064
2107
2090
2015
1924
1867
1862
1917
2012
2079
2096
2054
1979
1909
1891
1937
2033
2119
2130
2091
2007
1911
1873
1904
1984
2084
2127
2112
2041
1952
1897
1903
1966
2064
2134
2151
2088
1973
1895
1882
1935
2041
2132
2159
2112
2028
1952
1917
1947
2022
2130
2174
2151
2078
1982
1917
1927
2005
2110
2173
2161
2105
2019
1961
1954
2015
2107
2185
2223
2189
2099
2002
1968
2005
2099
2174
2221
2192
2112
2017
1952
1941
2002
2118
2205
2215
2158
2063
1982
1957
1994
2082
2169
2195
2140
2047
1967
1919
1937
2023
2123
2172
2149
2065
1965
1902
1904
1968
2047
2117
2128
2081
1983
1887
1852
1899
1997
2093
2126
2088
1991
1884
1829
1853
1923
2031
2095
2071
1983
1882
1819
1811
1882
1974
2044
2052
1987
1894
1815
1793
1850
1966
2060
2089
2045
1959
1873
1830
1841
1918
2001
2062
2037
1968
1889
1831
1827
1889
1986
2066
2080
2016
1919
1835
1801
1847
1951
2034
2065
2025
1936
1856
1828
1856
1932
2042
2101
2083
2005
1921
1856
1844
1904
2011
2093
2098
2027
1920
1840
1813
1863
1953
2045
2097
2082
1989
1898
1855
1877
1955
2037
2089
2073
2005
1931
1856
1851
1907
2003
2094
2119
2082
1986
1907
1874
1919
2007
2097
2128
2096
2019
1937
1898
1909
1979
2071
2114
2096
2027
1937
1877
1863
1920
2001
2079
2105
2064
1970
1894
1872
1910
1994
2076
2101
2064
1982
1893
1844
1859
1949
2065
2122
2106
2027
1932
1862
1851
1913
2015
2094
2095
2034
1950
1873
1855
1879
1979
2065
2081
2032
1949
1883
1851
1872
1955
2043
2090
2067
1988
1898
1838
1843
1919
2014
2079
2077
2001
1905
1835
1830
1886
1966
2061
2109
2101
2019
1934
1882
1889
1963
2046
2099
2087
2009
1919
1855
1858
1927
2030
2109
2112
2043
1941
1863
1847
1904
1991
2079
2099
2065
1989
1904
1851
1871
1954
2055
2113
2106
2039
1948
1885
1893
1957
2055
2119
2121
2070
1985
1905
1890
1938
2033
2121
2159
2120
2025
1918
1862
1889
1968
2064
2112
2096
2023
1940
1892
1902
1956
2038
2106
2115
2060
1959
1891
1875
1927
2021
2109
2133
2096
1998
1907
1865
1890
1975
2082
2132
2126
2064
1977
1921
1915
1970
2086
2158
2162
2096
1978
1899
1878
1938
2037
2130
2165
2137
2047
1968
1931
1961
2039
2153
2208
2189
2112
2013
1941
1934
1991
2088
2161
2183
2137
2047
1969
1934
1965
2058
2144
2181
2143
2047
1955
1907
1920
2001
2100
2146
2129
2053
1964
1904
1918
1982
2070
2129
2134
2077
1983
1919
1899
1944
2047
2123
2162
2128
2032
1942
1894
1907
1990
2092
2138
2125
2039
1949
1903
1921
2000
2111
2182
2176
2106
2000
1935
1919
1968
2064
2134
2160
2115
2016
1930
1893
1908
1990
2096
2151
2143
2067
1971
1923
1933
1997
2091
2149
2157
2112
2031
1957
1938
1984
2094
2192
2235
2207
2125
2032
1991
2022
2096
2174
2219
2215
2161
2096
2057
2062
2114
2192
2242
2243
2201
2115
2041
2029
2065
2135
2206
2217
2157
2038
1925
1859
1872
1959
2058
2111
2101
2042
1968
1927
1925
1984
2080
2143
2155
2091
1996
1923
1911
1966
2055
2141
2187
2159
2081
1990
1936
1933
1999
2096
2137
2099
2000
1903
1840
1844
1927
2047
2192
2319
2421
2530
2667
2827
2964
3049
3012
2835
2547
2224
1963
1830
1838
1936
2063
2135
2135
2074
1981
1914
1899
1949
2032
2093
2096
2043
1958
1879
1853
1889
1988
2081
2111
2071
1986
1904
1854
1866
1952
2038
2069
2056
1978
1899
1851
1847
1919
1997
2059
2060
1999
1904
1838
1831
1878
1969
2060
2087
2047
1970
1875
1819
1834
1911
2003
2063
2057
1995
1909
1847
1843
1907
2015
2091
2096
2023
1919
1841
1825
1877
1969
2044
2091
2061
1983
1895
1855
1868
1927
1998
2047
2042
1972
1883
1837
1856
1933
2028
2102
2109
2054
1949
1871
1842
1872
1955
2064
2112
2083
1990
1904
1863
1887
1968
2055
2103
2092
2011
1921
1861
1871
1951
2061
2131
2136
2083
1983
1904
1873
1920
2033
2130
2161
2117
2009
1913
1871
1905
2005
2112
2167
2160
2092
1993
1934
1941
2025
2128
2194
2199
2145
2065
1997
1985
2021
2102
2161
2167
2123
2043
1970
1936
1963
2046
2160
2225
2199
2121
2015
1936
1938
2005
2103
2171
2181
2127
2015
1925
1890
1933
2020
2114
2142
2085
1993
1915
1877
1906
2002
2079
2117
2099
2015
1921
1857
1847
1908
2004
2087
2083
2019
1937
1873
1859
1898
1978
2059
2081
2042
1953
1863
1813
1831
1909
2005
2062
2032
1955
1872
1815
1814
1891
1984
2055
2069
2015
1925
1845
1815
1855
1943
2033
2077
2035
1957
1872
1828
1850
1924
2015
2066
2039
1983
1910
1855
1856
1925
2028
2093
2096
2033
1947
1870
1854
1905
1996
2083
2112
2073
1971
1883
1842
1898
1994
2094
2130
2095
1999
1901
1841
1856
1942
2047
2129
2138
2073
1980
1904
1889
1954
2054
2133
2173
2137
2043
1955
1911
1935
2018
2105
2153
2153
2087
1991
1926
1905
1979
2092
2173
2176
2112
2025
1953
1931
1982
2077
2157
2175
2129
2041
1957
1922
1952
2037
2131
2199
2183
2095
1984
1906
1903
1968
2079
2158
2160
2091
1986
1920
1910
1965
2047
2127
2146
2096
2019
1936
1897
1921
2006
2103
2154
2135
2064
1975
1910
1904
1972
2083
2158
2165
2112
2019
1936
1906
1953
2047
2127
2151
2112
2030
1918
1895
1929
2020
2114
2159
2128
2039
1939
1878
1887
1983
2092
2151
2149
2099
2010
1931
1910
1962
2055
2135
2169
2137
2054
1965
1921
1936
2009
2103
2158
2144
2071
1970
1907
1905
1961
2047
2124
2138
2096
2007
1933
1911
1955
2045
2126
2150
2112
2019
1941
1913
1937
2023
2122
2163
2147
2072
1971
1904
1891
1957
2060
2128
2138
2086
1993
1921
1919
1962
2041
2117
2129
2074
1983
1917
1904
1946
2021
2113
2161
2144
2057
1951
1898
1909
1971
2064
2122
2125
2069
1975
1897
1869
1911
1986
2079
2112
2079
1986
1891
1862
1895
1968
2055
2111
2107
2023
1920
1857
1859
1931
2032
2112
2126
2064
1968
1893
1878
1942
2047
2122
2129
2070
1983
1904
1873
1920
2002
2098
2140
2115
2031
1943
1890
1901
1977
2082
2162
2187
2129
2031
1948
1919
1954
2046
2135
2176
2149
2059
1965
1923
1949
2017
2112
2161
2157
2065
1959
1904
1913
1984
2085
2158
2163
2109
2007
1933
1918
1964
2046
2121
2157
2113
2023
1935
1887
1918
2000
2089
2128
2112
2042
1949
1894
1904
1964
2042
2101
2107
2037
1937
1872
1878
1942
2043
2128
2150
2096
1987
1899
1866
1902
1996
2097
2166
2166
2107
2010
1963
1965
2015
2089
2135
2143
2096
2015
1953
1941
2000
2101
2187
2224
2178
2086
1984
1931
1963
2039
2139
2179
2137
2027
1908
1831
1817
1878
1974
2035
2035
1979
1888
1819
1808
1872
1969
2037
2042
1985
1906
1827
1807
1858
1956
2047
2103
2082
1995
1897
1830
1831
1904
2000
2058
2034
1958
1848
1744
1706
1751
1850
1949
2016
2058
2085
2142
2298
2521
2778
2977
3039
2929
2681
2371
2099
1934
1903
1948
2021
2057
2022
1942
1862
1843
1889
1974
2035
2061
2013
1911
1827
1792
1821
1903
1985
2029
2002
1919
1807
1744
1750
1839
1951
2025
2032
1982
1885
1803
1783
1840
1934
2007
2032
1978
1877
1792
1756
1787
1885
1983
2033
2022
1946
1851
1781
1783
1854
1954
2023
2018
1966
1891
1809
1808
1865
1951
2023
2047
2013
1931
1847
1805
1833
1918
2007
2062
2035
1954
1861
1809
1821
1887
1984
2055
2059
1975
1869
1792
1792
1847
1958
2055
2083
2031
1939
1862
1822
1842
1925
2013
2047
2027
1967
1883
1831
1835
1898
1992
2065
2083
2027
1936
1866
1845
1903
1993
2081
2096
2047
1971
1886
1850
1879
1973
2064
2111
2103
2042
1942
1876
1875
1947
2061
2138
2137
2064
1953
1875
1859
1926
2026
2127
2162
2146
2077
1989
1947
1967
2046
2137
2177
2151
2079
1985
1930
1920
1967
2082
2150
2146
2096
1998
1930
1919
1968
2073
2163
2187
2129
2022
1926
1869
1904
2007
2112
2159
2129
2033
1923
1869
1877
1959
2058
2117
2117
2055
1957
1881
1861
1920
2005
2085
2110
2063
1977
1888
1843
1883
1983
2095
2125
2095
1994
1903
1853
1858
1926
2021
2091
2075
1993
1881
1808
1808
1878
1977
2045
2070
2026
1936
1840
1795
1819
1911
2009
2065
2047
1979
1882
1825
1825
1882
1979
2041
2037
1981
1891
1830
1820
1869
1960
2034
2071
2015
1920
1841
1813
1847
1934
2032
2098
2093
2010
1915
1856
1873
1958
2064
2119
2115
2058
1941
1866
1850
1910
2001
2070
2083
2032
1968
1904
1863
1885
1971
2071
2118
2090
1997
1902
1841
1857
1950
2053
2122
2116
2046
1958
1886
1878
1954
2033
2123
2160
2123
2033
1943
1891
1903
1979
2086
2138
2119
2033
1936
1876
1884
1949
2031
2091
2090
2045
1972
1906
1898
1953
2055
2135
2159
2107
2005
1918
1881
1909
1989
2077
2112
2086
2023
1938
1884
1902
1972
2076
2129
2123
2063
1967
1893
1872
1927
2022
2110
2127
2076
1981
1895
1863
1903
1990
2081
2126
2107
2043
1968
1904
1885
1936
2015
2085
2084
2003
1917
1859
1867
1936
2034
2128
2157
2110
2014
1923
1877
1904
1987
2065
2095
2066
1984
1921
1873
1879
1949
2043
2123
2128
2068
1974
1904
1885
1936
2030
2107
2113
2054
1952
1865
1837
1884
1982
2077
2119
2095
1999
1902
1837
1855
1920
2014
2086
2091
2027
1921
1841
1826
1884
1981
2054
2086
2063
1986
1921
1885
1904
1984
2066
2106
2083
1999
1917
1872
1888
1966
2064
2124
2112
2032
1931
1872
1872
1927
2032
2117
2130
2069
1968
1897
1876
1922
2000
2088
2113
2085
2000
1911
1867
1877
1946
2030
2081
2079
2021
1923
1856
1858
1918
2014
2098
2109
2060
1968
1886
1868
1914
2006
2098
2134
2113
2032
1952
1904
1909
1973
2065
2125
2128
2058
1953
1878
1872
1936
2032
2117
2143
2095
1983
1903
1872
1909
2000
2095
2132
2103
2023
1926
1865
1875
1952
2041
2090
2074
2009
1940
1901
1902
1954
2045
2121
2130
2087
1986
1917
1875
1905
2000
2091
2125
2089
2000
1907
1852
1856
1937
2063
2138
2143
2072
1968
1895
1872
1932
2038
2134
2157
2117
2032
1953
1927
1968
2037
2107
2137
2111
2037
1963
1921
1938
2016
2112
2157
2145
2081
1995
1933
1921
1990
2106
2193
2215
2153
2062
1975
1948
1995
2090
2172
2210
2186
2112
2021
1969
1984
2064
2160
2219
2206
2141
2041
1980
1991
2046
2143
2207
2237
2197
2121
2047
2025
2064
2129
2178
2178
2128
2014
1919
1867
1891
1982
2074
2126
2103
2035
1941
1865
1859
1938
2046
2115
2119
2077
1985
1904
1872
1915
2003
2096
2128
2079
1997
1906
1857
1889
1978
2082
2128
2121
2038
1913
1814
1783
1834
1932
2054
2154
2230
2316
2438
2619
2815
2991
3084
3027
2821
2511
2191
1968
1892
1942
2067
2155
2165
2112
2025
1961
1942
1984
2062
2108
2110
2046
1949
1871
1837
1866
1973
2069
2112
2081
1984
1890
1837
1840
1905
1992
2059
2045
1975
1894
1840
1839
1901
1990
2062
2064
2009
1921
1835
1803
1840
1927
2007
2059
2034
1945
1854
1819
1855
1936
2025
2080
2075
1993
1894
1827
1829
1895
1989
2064
2081
2033
1943
1871
1844
1883
1971
2043
2067
2032
1943
1856
1809
1827
1909
2003
2075
2077
2002
1911
1854
1859
1930
2032
2112
2127
2086
1997
1917
1885
1927
2018
2107
2151
2131
2054
1943
1878
1882
1957
2047
2108
2109
2044
1961
1904
1900
1958
2055
2150
2177
2128
2045
1967
1936
1966
2053
2139
2178
2155
2064
1963
1910
1920
1999
2105
2175
2176
2118
2033
1981
1971
2032
2127
2196
2209
2167
2086
2013
1988
2023
2115
2205
2253
2224
2144
2043
1987
1991
2039
2128
2188
2195
2150
2066
1997
1990
2043
2134
2202
2215
2167
2075
1987
1957
1985
2065
2132
2160
2127
2060
1973
1925
1938
2007
2101
2159
2156
2090
1991
1930
1917
1967
2047
2103
2100
2058
1968
1893
1872
1917
2015
2113
2149
2109
2012
1911
1857
1872
1947
2032
2083
2069
2005
1933
1873
1869
1923
2005
2074
2083
2035
1955
1881
1858
1905
1983
2057
2067
2021
1945
1857
1815
1833
1898
1989
2064
2067
1993
1888
1821
1817
1891
1995
2084
2105
2032
1933
1853
1837
1887
1983
2087
2123
2080
1975
1873
1819
1835
1915
2014
2078
2076
2000
1906
1841
1835
1903
2007
2093
2098
2043
1946
1859
1826
1867
1959
2047
2096
2047
1959
1879
1850
1885
1951
2023
2078
2070
2010
1923
1886
1904
1969
2065
2129
2135
2080
1979
1902
1886
1936
2032
2123
2159
2119
2026
1931
1883
1902
1987
2096
2165
2151
2065
1966
1904
1904
1983
2094
2165
2169
2107
2000
1918
1883
1920
2023
2129
2166
2130
2035
1935
1872
1890
1972
2077
2148
2150
2074
1962
1888
1895
1965
2064
2129
2138
2083
1984
1907
1875
1917
2015
2100
2129
2094
2000
1914
1881
1918
2001
2094
2144
2132
2071
1959
1881
1883
1955
2079
2145
2146
2092
1986
1905
1892
1931
2027
2112
2147
2091
1979
1890
1856
1895
1998
2099
2143
2111
2029
1932
1870
1872
1945
2037
2097
2097
2053
1968
1889
1869
1921
2026
2117
2141
2099
2009
1927
1893
1921
2000
2087
2123
2112
2045
1953
1878
1871
1939
2043
2124
2134
2094
1995
1919
1892
1941
2027
2108
2127
2085
1997
1917
1879
1909
1984
2070
2112
2110
2047
1941
1875
1872
1946
2044
2123
2139
2091
1995
1935
1917
1968
2074
2157
2176
2131
2033
1951
1903
1918
1994
2090
2128
2106
2016
1914
1877
1906
1991
2073
2144
2151
2096
1995
1909
1881
1932
2036
2130
2162
2112
2006
1906
1867
1908
2007
2102
2151
2133
2064
1957
1891
1883
1963
2061
2132
2139
2071
1963
1888
1875
1935
2033
2141
2174
2129
2037
1942
1893
1901
1984
2076
2145
2139
2062
1964
1913
1936
2017
2124
2197
2182
2107
1989
1908
1891
1937
2033
2117
2147
2108
2006
1917
1879
1905
1994
2099
2168
2158
2081
1980
1915
1908
1989
2101
2166
2165
2107
2018
1940
1910
1948
2041
2129
2160
2120
2034
1968
1949
1990
2079
2171
2213
2192
2122
2018
1964
1981
2078
2191
2259
2262
2197
2096
2014
1971
2032
2133
2223
2259
2240
2161
2075
2021
2055
2121
2212
2273
2274
2198
2093
2013
2000
2062
2154
2207
2183
2096
1983
1901
1872
1922
2022
2112
2134
2107
2021
1933
1889
1904
1974
2075
2128
2126
2045
1922
1852
1843
1921
2013
2074
2070
2003
1920
1853
1826
1863
1936
2006
2028
1975
1884
1792
1767
1840
2012
2237
2462
2644
2768
2832
2851
2845
2815
2718
2544
2332
2130
1959
1859
1859
1936
2039
2121
2137
2081
1969
1874
1829
1851
1935
2043
2095
2079
2000
1903
1838
1825
1872
1942
2000
2005
1953
1873
1830
1813
1851
1926
1999
2025
1997
1902
1809
1776
1812
1895
1981
2013
1970
1893
1811
1774
1793
1881
1975
2043
2041
1977
1883
1803
1781
1823
1918
1999
2019
1971
1872
1783
1746
1783
1882
1971
2007
1977
1875
1790
1744
1777
1856
1954
2008
1989
1904
1821
1759
1744
1791
1905
2009
2054
2015
1917
1822
1789
1815
1909
2001
2052
2031
1954
1844
1763
1747
1840
1940
2015
2022
1974
1889
1813
1802
1861
1968
2039
2064
1999
1913
1838
1811
1853
1954
2059
2095
2054
1958
1856
1807
1813
1890
1984
2064
2064
1991
1909
1851
1840
1906
2013
2107
2128
2075
1965
1871
1842
1893
1999
2100
2143
2123
2037
1951
1910
1931
2000
2099
2175
2176
2101
1990
1911
1895
1963
2067
2154
2166
2117
2031
1951
1931
1966
2031
2106
2150
2128
2054
1951
1886
1883
1946
2042
2114
2124
2071
1974
1911
1891
1938
2018
2096
2128
2094
1996
1916
1882
1904
1983
2073
2115
2091
2000
1902
1848
1846
1918
2006
2094
2099
2038
1958
1898
1875
1920
2013
2096
2121
2077
1979
1895
1864
1910
2000
2080
2107
2068
1984
1897
1851
1859
1920
2005
2091
2086
2003
1904
1827
1814
1879
1971
2055
2086
2043
1968
1883
1850
1889
1980
2055
2097
2073
1989
1901
1847
1863
1959
2064
2125
2112
2026
1917
1843
1845
1914
2012
2100
2134
2097
2012
1931
1891
1911
1998
2103
2143
2116
2023
1935
1888
1892
1965
2055
2121
2123
2058
1961
1901
1898
1958
2047
2125
2142
2096
2006
1921
1892
1922
2002
2096
2151
2129
2035
1947
1904
1927
2006
2115
2188
2177
2106
2005
1931
1921
1969
2062
2129
2147
2112
2035
1968
1930
1952
2037
2127
2150
2103
2007
1919
1879
1917
2003
2101
2156
2156
2091
2003
1942
1923
1969
2065
2139
2160
2119
2031
1938
1904
1938
2032
2129
2171
2135
2057
1964
1925
1949
2032
2124
2174
2169
2102
1998
1917
1904
1959
2047
2128
2135
2086
1986
1902
1871
1915
2043
2147
2187
2157
2064
1965
1895
1910
1983
2077
2135
2151
2087
1985
1913
1906
1963
2054
2128
2150
2100
1998
1906
1877
1924
2015
2112
2143
2107
2023
1934
1879
1910
2001
2112
2167
2161
2086
1984
1910
1902
1950
2032
2113
2133
2096
1991
1926
1921
1969
2059
2138
2169
2139
2057
1941
1871
1884
1979
2083
2151
2150
2085
1981
1904
1902
1963
2064
2142
2164
2111
1993
1904
1873
1907
1995
2089
2131
2117
2032
1935
1872
1878
1963
2077
2150
2146
2075
1963
1887
1879
1957
2047
2139
2160
2113
2007
1919
1883
1917
1993
2086
2122
2095
1997
1918
1899
1927
2000
2097
2147
2135
2074
1984
1917
1902
1938
2018
2099
2128
2095
2010
1938
1904
1935
2030
2117
2157
2118
2026
1936
1898
1920
1994
2094
2142
2126
2041
1936
1874
1882
1962
2069
2148
2167
2131
2039
1950
1913
1943
2026
2108
2130
2102
2011
1921
1878
1901
1982
2090
2157
2160
2098
1999
1939
1932
1985
2076
2149
2160
2113
2027
1942
1915
1954
2078
2165
2197
2167
2080
1981
1927
1936
2018
2125
2205
2207
2149
2064
1997
1988
2058
2153
2223
2231
2186
2105
2020
1996
2043
2159
2254
2283
2246
2157
2054
2007
2030
2102
2179
2240
2224
2145
2032
1949
1921
1965
2043
2115
2133
2079
1951
1856
1834
1877
1970
2064
2111
2091
2000
1911
1871
1893
1981
2065
2113
2095
2015
1942
1903
1889
1952
2038
2097
2091
2012
1915
1829
1795
1834
1915
1985
2000
1967
1917
1903
1974
2157
2419
2726
2966
3065
2989
2799
2545
2310
2144
2047
2043
2058
2030
1968
1904
1872
1904
1984
2065
2096
2059
1978
1877
1829
1854
1947
2047
2112
2103
2032
1927
1845
1827
1871
1957
2038
2054
2000
1907
1827
1808
1847
1940
2037
2087
2053
1963
1874
1830
1839
1898
1979
2037
2031
1975
1873
1811
1797
1859
1965
2039
2058
2001
1918
1838
1808
1856
1978
2061
2084
2054
1967
1855
1807
1835
1925
2022
2079
2064
1979
1878
1814
1823
1886
1973
2059
2083
2027
1933
1856
1840
1885
1979
2063
2087
2047
1968
1875
1830
1837
1918
2030
2102
2096
2013
1920
1855
1846
1904
2003
2089
2100
2035
1941
1870
1853
1895
1982
2066
2106
2084
1991
1902
1859
1883
1984
2090
2147
2139
2067
1977
1909
1902
1963
2062
2129
2133
2067
1984
1916
1910
1963
2047
2131
2166
2154
2077
1971
1909
1925
2009
2106
2147
2131
2075
1994
1937
1934
1990
2090
2169
2196
2141
2034
1947
1909
1945
2042
2137
2173
2130
2036
1946
1906
1929
2015
2110
2146
2125
2042
1938
1872
1870
1930
2016
2087
2089
2018
1904
1808
1783
1824
1913
2001
2047
2013
1918
1830
1786
1807
1885
1979
2027
2003
1934
1853
1792
1788
1847
1941
2016
2032
1979
1889
1808
1783
1821
1920
2019
2053
2028
1936
1835
1776
1791
1883
1991
2039
2033
1975
1881
1822
1808
1875
1970
2032
2027
1955
1868
1815
1810
1849
1940
2031
2063
2014
1921
1837
1792
1808
1901
1999
2063
2047
1982
1887
1819
1811
1870
1966
2032
2047
1997
1913
1840
1817
1859
1954
2029
2057
2023
1942
1853
1806
1817
1905
2014
2084
2075
1991
1890
1828
1827
1898
1986
2083
2095
2025
1930
1855
1834
1875
1963
2063
2101
2054
1958
1857
1811
1856
1965
2077
2125
2091
1999
1904
1850
1847
1916
2016
2095
2102
2031
1926
1841
1818
1872
1975
2065
2112
2089
1997
1901
1849
1865
1942
2025
2073
2064
1999
1905
1855
1852
1920
2002
2077
2085
2022
1934
1855
1825
1869
1953
2032
2064
2027
1941
1853
1813
1853
1936
2032
2085
2047
1959
1860
1804
1814
1897
2003
2086
2081
2018
1934
1875
1863
1910
1994
2071
2100
2065
1966
1878
1858
1901
1993
2090
2133
2109
2023
1936
1883
1887
1958
2055
2115
2120
2067
1984
1924
1903
1937
2015
2108
2131
2085
1991
1913
1873
1914
2009
2105
2157
2141
2064
1961
1894
1887
1954
2057
2129
2141
2078
1983
1904
1881
1914
2001
2102
2124
2071
1981
1894
1851
1877
1955
2061
2112
2090
2002
1909
1869
1878
1955
2065
2138
2147
2087
1984
1904
1885
1923
2011
2090
2102
2059
1962
1872
1848
1890
1983
2085
2134
2112
2045
1955
1889
1890
1961
2065
2139
2130
2066
1957
1885
1882
1936
2017
2098
2131
2096
2009
1937
1898
1914
1982
2078
2121
2096
2015
1923
1881
1894
1963
2063
2128
2127
2064
1959
1891
1885
1939
2025
2097
2115
2064
1968
1882
1855
1881
1974
2089
2138
2117
2038
1937
1875
1887
1951
2053
2122
2115
2045
1951
1875
1855
1890
1984
2071
2106
2075
1979
1886
1847
1895
1984
2087
2135
2118
2032
1925
1854
1838
1914
2027
2112
2123
2068
1961
1882
1856
1911
2012
2096
2128
2078
1985
1904
1872
1903
1985
2064
2096
2068
1991
1903
1847
1863
1927
2055
2129
2128
2060
1973
1921
1919
1968
2057
2125
2135
2095
2000
1918
1895
1937
2039
2145
2192
2173
2096
1999
1949
1951
2013
2115
2189
2186
2122
2013
1935
1903
1936
2013
2082
2095
2039
1953
1861
1821
1846
1934
2028
2071
2039
1969
1872
1819
1840
1915
2022
2099
2112
2045
1954
1883
1881
1937
2028
2098
2101
2021
1927
1865
1840
1867
1934
1991
2019
1963
1877
1791
1775
1862
2084
2355
2638
2849
2943
2934
2849
2738
2615
2477
2333
2189
2065
1955
1899
1891
1931
2027
2103
2136
2103
2005
1903
1825
1824
1894
1994
2078
2071
1985
1890
1830
1826
1877
1955
2015
2013
1967
1870
1794
1777
1825
1913
1995
2023
1989
1907
1808
1769
1783
1863
1967
2029
2031
1968
1872
1805
1798
1857
1955
2032
2047
1995
1895
1817
1791
1819
1911
2003
2061
2032
1955
1849
1782
1801
1879
1981
2053
2061
1990
1893
1834
1830
1895
1995
2065
2070
2007
1922
1849
1821
1856
1949
2037
2086
2065
1979
1886
1837
1834
1936
2038
2110
2096
2002
1904
1842
1841
1913
1999
2073
2083
2034
1955
1878
1851
1886
1982
2075
2112
2085
1993
1897
1866
1910
1989
2079
2129
2112
2034
1950
1891
1901
1967
2066
2134
2134
2075
1976
1899
1887
1942
2043
2135
2171
2128
2038
1957
1918
1940
2017
2117
2171
2174
2105
2000
1922
1915
1985
2097
2191
2215
2162
2064
1979
1943
1979
2065
2147
2179
2139
2064
1970
1932
1950
2011
2092
2141
2131
2070
1971
1902
1895
1937
2015
2099
2115
2060
1955
1856
1821
1861
1958
2054
2096
2042
1963
1877
1831
1843
1920
2011
2064
2046
1985
1903
1847
1840
1900
1985
2047
2063
2007
1907
1823
1789
1829
1941
2034
2087
2061
1989
1909
1847
1843
1911
2002
2066
2068
1983
1904
1859
1863
1923
2028
2106
2110
2039
1936
1842
1811
1859
1957
2043
2087
2065
1991
1904
1854
1867
1934
2024
2076
2059
1988
1893
1830
1821
1876
1970
2044
2058
2001
1914
1841
1823
1854
1933
2018
2065
2043
1951
1851
1806
1839
1919
2007
2059
2039
1970
1899
1847
1840
1899
1987
2074
2096
2035
1945
1859
1829
1873
1977
2063
2092
2059
1978
1897
1854
1869
1943
2023
2075
2053
1982
1902
1840
1839
1899
1984
2055
2067
2013
1907
1825
1807
1859
1962
2063
2099
2055
1959
1858
1795
1817
1929
2023
2075
2057
1983
1893
1825
1823
1894
2000
2096
2105
2032
1937
1856
1831
1871
1958
2034
2057
2028
1950
1871
1842
1877
1961
2039
2091
2064
1984
1903
1856
1857
1932
2030
2099
2102
2033
1941
1872
1847
1886
1967
2033
2061
2027
1969
1873
1830
1859
1949
2055
2113
2118
2045
1940
1869
1855
1910
2007
2096
2114
2067
1968
1886
1859
1904
1983
2064
2096
2043
1967
1882
1857
1904
1997
2096
2148
2121
2032
1925
1862
1872
1953
2064
2134
2131
2064
1958
1887
1866
1905
2001
2089
2112
2074
1984
1899
1856
1872
1963
2066
2119
2099
2010
1917
1855
1863
1935
2031
2096
2101
2037
1947
1875
1855
1913
2000
2075
2099
2062
1968
1887
1854
1872
1965
2064
2117
2097
2009
1910
1855
1850
1914
2003
2085
2095
2043
1956
1889
1859
1892
1984
2077
2109
2065
1984
1903
1865
1887
1970
2063
2101
2095
2021
1939
1893
1892
1968
2079
2145
2138
2062
1947
1865
1845
1889
1990
2083
2117
2081
2007
1904
1865
1889
1984
2092
2126
2087
1998
1910
1846
1850
1926
2037
2117
2122
2063
1955
1872
1842
1890
1984
2096
2131
2095
1997
1905
1858
1878
1954
2045
2109
2093
2026
1949
1891
1883
1953
2055
2123
2132
2080
1989
1919
1909
1949
2057
2138
2174
2128
2034
1957
1933
1961
2053
2148
2205
2192
2125
2038
1990
1993
2054
2133
2202
2219
2175
2083
1995
1971
2035
2139
2226
2251
2210
2128
2047
2016
2043
2128
2224
2259
2223
2121
2000
1923
1914
1964
2047
2128
2147
2102
1999
1916
1902
1947
2032
2112
2134
2096
2002
1915
1872
1902
1986
2078
2126
2112
2033
1936
1872
1867
1935
2035
2098
2082
1995
1890
1808
1780
1819
1890
1968
2000
2000
1991
2022
2143
2363
2653
2898
3029
2992
2791
2509
2215
1989
1891
1888
1931
1968
1959
1904
1861
1856
1904
1984
2063
2096
2046
1951
1861
1818
1853
1921
2000
2044
2025
1942
1843
1778
1775
1841
1933
1984
1995
1956
1885
1827
1809
1843
1923
2000
2027
1993
1916
1835
1797
1823
1897
1970
2000
1968
1889
1803
1773
1787
1863
1963
2023
2038
1989
1899
1819
1795
1840
1945
2027
2064
2012
1910
1819
1779
1808
1904
2000
2038
2011
1947
1861
1803
1798
1865
1963
2034
2041
1979
1887
1808
1793
1873
1985
2067
2087
2035
1949
1854
1809
1840
1931
2027
2073
2037
1968
1873
1819
1830
1907
2000
2071
2068
1999
1897
1823
1818
1883
1987
2080
2102
2061
1963
1869
1829
1870
1975
2064
2128
2110
2030
1947
1901
1919
2006
2115
2182
2173
2099
1994
1918
1909
1966
2055
2130
2161
2129
2063
1993
1968
1997
2081
2167
2207
2176
2102
2016
1978
1984
2039
2141
2209
2203
2142
2045
1969
1947
1991
2085
2151
2160
2099
2003
1935
1905
1951
2058
2151
2182
2134
2030
1927
1873
1886
1952
2042
2107
2096
2015
1917
1856
1845
1901
1994
2064
2078
2014
1917
1823
1776
1818
1906
1998
2038
2006
1921
1841
1802
1815
1893
1986
2047
2043
1988
1901
1835
1819
1873
1955
2022
2030
1968
1867
1771
1756
1808
1904
1990
2027
2006
1933
1847
1791
1795
1875
1974
2035
2036
1968
1871
1805
1783
1856
1951
2034
2038
1977
1882
1799
1760
1789
1872
1951
1997
1994
1936
1858
1813
1824
1891
1975
2032
2034
1979
1902
1841
1840
1904
1991
2065
2069
2011
1927
1854
1833
1857
1949
2038
2086
2058
1968
1867
1806
1810
1901
2000
2067
2063
1984
1877
1794
1779
1837
1926
2000
2005
1937
1829
1745
1728
1773
1858
1936
1965
1918
1842
1751
1688
1691
1786
1903
1968
1966
1898
1795
1723
1723
1779
1869
1943
1969
1933
1841
1773
1749
1792
1888
1990
2039
2018
1942
1850
1799
1815
1891
1985
2067
2095
2032
1936
1869
1856
1909
2001
2081
2096
2046
1968
1886
1857
1901
1993
2090
2128
2103
2013
1915
1872
1891
1968
2066
2125
2103
2015
1929
1878
1882
1930
2026
2110
2120
2064
1969
1879
1840
1863
1959
2046
2092
2071
1975
1872
1808
1819
1899
2000
2071
2070
2001
1895
1818
1805
1860
1955
2032
2045
1995
1891
1802
1767
1793
1872
1983
2035
2014
1936
1834
1765
1775
1855
1946
1997
1989
1922
1831
1765
1757
1809
1889
1962
1969
1919
1831
1754
1719
1756
1845
1936
1977
1945
1861
1774
1743
1767
1843
1939
2003
1994
1925
1827
1749
1727
1785
1881
1957
1967
1917
1833
1761
1733
1773
1862
1946
1986
1962
1893
1789
1737
1755
1829
1921
1982
1977
1909
1814
1745
1739
1799
1911
2011
2041
1986
1894
1811
1780
1813
1888
1973
2018
1994
1906
1835
1798
1813
1888
1978
2036
2028
1968
1875
1811
1818
1899
2001
2081
2096
2053
1971
1893
1859
1898
1984
2091
2144
2128
2057
1969
1930
1957
2042
2148
2218
2217
2167
2096
2031
2030
2105
2192
2263
2281
2235
2139
2047
2021
2067
2159
2251
2289
2266
2186
2093
2029
2034
2107
2187
2252
2257
2222
2162
2123
2128
2186
2275
2347
2358
2299
2202
2128
2112
2167
2267
2353
2389
2368
2301
2209
2166
2189
2261
2339
2380
2359
2302
2240
2192
2192
2254
2352
2432
2439
2382
2282
2196
2173
2223
2304
2368
2369
2307
2202
2101
2037
2047
2120
2209
2257
2231
2153
2063
2006
2026
2097
2180
2235
2230
2174
2075
1983
1946
1987
2068
2149
2183
2160
2078
1970
1921
1950
2029
2115
2160
2133
2047
1939
1858
1841
1904
2012
2112
2175
2219
2279
2391
2559
2789
2981
3088
3041
2850
2544
2234
2006
1920
1958
2060
2140
2153
2082
1979
1907
1911
1968
2064
2127
2128
2067
1966
1886
1870
1936
2026
2110
2128
2096
2015
1929
1872
1882
1968
2055
2097
2083
2018
1942
1894
1893
1955
2062
2129
2139
2077
1971
1889
1856
1893
1985
2079
2109
2084
2013
1931
1883
1895
1973
2064
2112
2096
2018
1924
1856
1856
1923
2032
2125
2141
2079
1969
1898
1892
1936
2021
2111
2151
2119
2025
1920
1868
1889
1979
2099
2154
2142
2055
1955
1894
1897
1969
2066
2128
2144
2096
2001
1931
1904
1955
2054
2139
2176
2141
2055
1958
1903
1931
2014
2114
2166
2142
2046
1947
1901
1919
1999
2096
2159
2169
2108
2002
1931
1919
1967
2059
2137
2173
2146
2080
1983
1929
1953
2054
2159
2224
2219
2144
2057
1997
1999
2069
2160
2227
2227
2170
2073
1995
1982
2043
2152
2237
2268
2233
2138
2042
2002
2037
2122
2209
2245
2213
2134
2047
1985
1987
2047
2153
2224
2227
2160
2062
1968
1937
1986
2083
2163
2191
2157
2063
1964
1918
1942
2027
2112
2155
2133
2062
1969
1914
1927
2003
2103
2163
2167
2097
1981
1898
1875
1923
2015
2094
2111
2061
1957
1872
1843
1885
1975
2080
2125
2103
2014
1895
1813
1837
1914
2021
2107
2121
2062
1954
1872
1861
1921
2013
2089
2111
2066
1969
1883
1845
1873
1949
2032
2086
2074
2001
1915
1869
1887
1971
2067
2128
2127
2065
1975
1907
1893
1947
2039
2129
2145
2094
1991
1899
1851
1872
1961
2053
2103
2094
2018
1923
1862
1863
1934
2032
2123
2136
2075
1970
1897
1877
1925
2009
2089
2102
2061
1968
1881
1847
1871
1959
2047
2096
2074
2001
1926
1872
1873
1945
2045
2111
2111
2039
1936
1858
1861
1921
2021
2113
2147
2110
2000
1894
1845
1872
1965
2068
2120
2111
2022
1927
1863
1875
1945
2033
2106
2110
2044
1948
1862
1845
1909
2003
2112
2145
2099
1991
1898
1859
1887
1971
2063
2099
2073
1979
1895
1840
1845
1936
2047
2126
2129
2077
1974
1904
1889
1951
2042
2127
2128
2064
1971
1885
1846
1879
1975
2085
2135
2123
2032
1936
1873
1881
1962
2069
2128
2123
2046
1933
1847
1840
1925
2021
2110
2131
2087
1997
1911
1872
1904
1983
2067
2121
2103
2005
1933
1885
1886
1940
2032
2112
2128
2070
1980
1904
1885
1935
2033
2119
2144
2093
1995
1903
1874
1914
2003
2109
2154
2138
2054
1957
1904
1908
1969
2080
2147
2143
2071
1979
1919
1901
1951
2059
2137
2147
2099
2020
1936
1901
1936
2031
2121
2159
2133
2045
1940
1890
1906
1990
2096
2160
2159
2094
1990
1905
1872
1921
2021
2119
2155
2129
2062
1981
1934
1966
2041
2144
2187
2155
2068
1967
1899
1907
1994
2089
2132
2128
2075
1995
1933
1907
1949
2044
2122
2140
2097
2016
1947
1919
1948
2025
2111
2147
2125
2043
1951
1916
1931
1995
2087
2135
2133
2071
1973
1907
1899
1965
2075
2157
2167
2107
2000
1913
1891
1937
2032
2125
2171
2142
2059
1963
1915
1934
2003
2096
2158
2154
2084
1989
1920
1918
1982
2079
2135
2144
2085
1981
1903
1884
1919
2000
2090
2125
2093
2005
1922
1869
1874
1945
2038
2096
2096
2027
1923
1842
1816
1894
2025
2127
2158
2112
2007
1911
1872
1904
1985
2071
2101
2064
1971
1872
1824
1840
1910
1999
2063
2035
1959
1868
1794
1784
1836
1899
1938
1927
1859
1746
1618
1574
1606
1714
1826
1876
1840
1740
1648
1600
1617
1698
1799
1869
1861
1780
1677
1591
1576
1633
1728
1812
1847
1810
1731
1669
1627
1638
1713
1789
1803
1738
1623
1514
1456
1472
1584
1739
1901
2032
2155
2256
2368
2480
2559
2603
2545
2365
2096
1821
1633
1557
1600
1718
1837
1881
1843
1725
1604
1535
1535
1617
1703
1759
1749
1669
1566
1498
1497
1573
1655
1709
1698
1648
1535
1463
1427
1458
1535
1623
1651
1605
1504
1408
1360
1397
1483
1583
1648
1647
1584
1490
1435
1437
1502
1615
1697
1722
1668
1583
1499
1459
1498
1601
1697
1744
1712
1631
1535
1501
1517
1615
1728
1786
1771
1699
1611
1535
1535
1616
1701
1776
1808
1764
1677
1603
1585
1627
1718
1809
1852
1837
1758
1679
1634
1654
1737
1840
1893
1862
1783
1698
1632
1625
1686
1789
1867
1879
1825
1728
1670
1659
1711
1808
1907
1934
1905
1834
1751
1718
1743
1824
1915
1969
1955
1874
1782
1743
1764
1838
1938
2026
2059
2000
1911
1836
1809
1855
1953
2038
2081
2058
1984
1907
1883
1917
1997
2094
2154
2139
2035
1921
1853
1851
1923
2025
2097
2105
2043
1936
1845
1808
1849
1936
2015
2047
2004
1910
1805
1751
1769
1849
1939
2000
1983
1890
1791
1735
1728
1797
1891
1947
1947
1885
1787
1714
1680
1712
1783
1867
1901
1870
1789
1696
1648
1666
1745
1833
1874
1861
1781
1688
1643
1638
1695
1778
1839
1843
1777
1680
1611
1599
1654
1755
1835
1859
1811
1726
1641
1591
1601
1675
1761
1818
1809
1731
1632
1567
1554
1633
1714
1789
1796
1741
1645
1578
1574
1616
1687
1757
1776
1719
1630
1535
1493
1521
1603
1692
1741
1728
1661
1571
1520
1526
1600
1696
1761
1744
1680
1606
1554
1535
1590
1680
1766
1790
1735
1646
1570
1531
1567
1666
1771
1820
1803
1747
1670
1613
1618
1693
1779
1840
1845
1790
1703
1621
1599
1648
1743
1831
1859
1820
1750
1677
1646
1680
1762
1854
1901
1886
1803
1718
1660
1657
1729
1839
1918
1925
1863
1765
1698
1712
1782
1882
1972
2000
1964
1867
1773
1728
1760
1854
1945
1998
1979
1903
1808
1755
1767
1845
1945
2006
2004
1945
1856
1791
1776
1825
1920
2000
2032
1997
1911
1831
1789
1801
1883
1983
2027
2017
1955
1877
1825
1827
1898
1989
2057
2069
2011
1916
1839
1819
1863
1968
2047
2075
2046
1967
1870
1834
1859
1961
2060
2114
2096
2007
1909
1850
1853
1921
2021
2103
2112
2061
1968
1887
1865
1911
2001
2097
2142
2091
1979
1863
1818
1861
1959
2073
2128
2112
2039
1938
1870
1856
1904
2001
2075
2082
2026
1947
1882
1869
1914
1995
2067
2097
2067
1984
1905
1857
1875
1951
2032
2082
2075
1984
1890
1833
1835
1914
2021
2087
2079
2006
1917
1850
1826
1889
1983
2065
2096
2045
1951
1869
1843
1872
1951
2045
2106
2089
2003
1914
1863
1877
1952
2047
2114
2113
2064
1973
1903
1875
1936
2029
2100
2105
2029
1886
1758
1687
1689
1746
1808
1831
1802
1712
1606
1556
1552
1617
1707
1767
1772
1712
1612
1517
1494
1535
1633
1712
1744
1709
1627
1535
1522
1556
1641
1726
1759
1725
1638
1557
1511
1522
1622
1726
1782
1782
1702
1619
1554
1520
1577
1674
1756
1785
1739
1653
1563
1520
1555
1650
1755
1791
1774
1709
1634
1610
1631
1691
1782
1835
1825
1776
1694
1616
1587
1636
1735
1829
1856
1811
1721
1649
1620
1662
1744
1835
1863
1810
1710
1616
1584
1602
1680
1782
1847
1870
1834
1755
1679
1663
1720
1814
1901
1921
1881
1794
1701
1646
1667
1743
1827
1870
1837
1789
1710
1670
1693
1779
1866
1936
1948
1904
1814
1741
1731
1795
1902
1998
2033
2007
1929
1860
1833
1855
1922
2007
2055
2025
1963
1878
1818
1809
1864
1940
2002
2003
1937
1861
1819
1869
2039
2290
2559
2800
2957
2992
2931
2835
2735
2628
2487
2357
2231
2115
2032
2007
2047
2141
2225
2263
2240
2142
2018
1936
1930
1983
2071
2156
2185
2141
2047
1955
1911
1934
2032
2139
2190
2160
2082
1983
1909
1923
2001
2102
2172
2167
2096
1999
1927
1913
1969
2065
2139
2165
2123
2032
1952
1921
1951
2046
2143
2187
2171
2099
2023
1972
1982
2059
2142
2205
2208
2145
2059
1978
1946
2000
2096
2174
2192
2155
2084
2005
1974
2003
2096
2189
2229
2197
2103
2000
1953
1968
2039
2142
2214
2224
2160
2066
1996
1989
2055
2160
2243
2254
2199
2118
2039
2000
2029
2112
2197
2238
2210
2129
2042
2004
2032
2114
2218
2285
2288
2224
2131
2085
2078
2122
2194
2257
2277
2236
2163
2100
2078
2109
2206
2304
2321
2271
2176
2086
2032
2043
2116
2192
2254
2260
2224
2146
2087
2085
2138
2233
2310
2318
2257
2161
2078
2043
2087
2178
2262
2298
2256
2173
2090
2042
2065
2151
2255
2310
2301
2227
2131
2064
2044
2110
2212
2289
2303
2251
2154
2062
2027
2081
2163
2256
2307
2294
2215
2125
2065
2065
2133
2245
2313
2293
2211
2096
2015
2010
2084
2194
2283
2311
2268
2167
2078
2036
2067
2151
2237
2274
2246
2172
2091
2031
2038
2119
2208
2274
2275
2213
2107
2021
2010
2078
2166
2235
2251
2208
2119
2038
2022
2067
2160
2240
2267
2238
2175
2099
2065
2083
2150
2243
2305
2295
2218
2112
2039
2034
2096
2180
2255
2269
2224
2140
2066
2035
2089
2182
2269
2307
2283
2201
2096
2029
2039
2119
2211
2271
2271
2199
2117
2042
2031
2093
2187
2251
2254
2201
2134
2065
2033
2080
2169
2251
2282
2245
2167
2087
2023
2036
2130
2240
2293
2275
2199
2111
2030
2002
2067
2161
2229
2238
2198
2128
2057
2003
2042
2151
2255
2303
2261
2160
2059
2007
2031
2112
2204
2256
2242
2177
2096
2041
2045
2110
2192
2249
2241
2176
2083
2000
1971
2011
2113
2196
2237
2205
2117
2013
1957
1974
2064
2162
2218
2196
2134
2063
1993
1971
2022
2117
2192
2219
2177
2100
2011
1987
2047
2151
2233
2253
2215
2144
2075
2035
2058
2124
2198
2241
2225
2159
2067
2005
1999
2057
2149
2217
2223
2165
2081
1997
1968
2007
2106
2190
2224
2192
2109
2006
1957
1983
2082
2192
2251
2242
2176
2096
2032
2015
2065
2154
2223
2211
2131
2026
1963
1954
2026
2142
2231
2261
2223
2127
2013
1957
1957
2018
2126
2195
2189
2118
2005
1927
1919
1997
2108
2166
2160
2109
2021
1932
1903
1939
2015
2101
2134
2106
2030
1945
1899
1907
1983
2075
2132
2129
2059
1949
1886
1892
1972
2081
2143
2135
2077
2000
1947
1936
1965
2055
2138
2165
2123
2031
1937
1903
1934
2022
2127
2175
2159
2089
1981
1914
1915
2000
2118
2181
2176
2124
2032
1959
1946
1993
2082
2161
2189
2149
2063
1975
1934
1958
2034
2131
2189
2171
2103
1997
1925
1912
1971
2096
2183
2201
2130
2031
1967
1947
1994
2091
2167
2192
2147
2043
1951
1904
1921
1994
2087
2133
2117
2035
1941
1894
1904
1970
2065
2127
2125
2064
1974
1921
1910
1963
2064
2141
2160
2134
2064
1977
1936
1968
2061
2153
2196
2177
2112
2031
1970
1970
2042
2137
2192
2186
2135
2055
1989
1968
2015
2115
2210
2226
2160
2047
1943
1885
1894
1973
2061
2099
2079
1999
1902
1841
1849
1920
2031
2103
2104
2045
1952
1872
1852
1903
2003
2079
2083
2027
1952
1869
1826
1859
1935
2029
2075
2047
1954
1841
1765
1755
1813
1919
2006
2045
2055
2077
2160
2341
2608
2867
3033
3027
2865
2579
2261
2011
1889
1889
1967
2038
2043
1984
1904
1840
1825
1876
1953
2006
2003
1929
1827
1754
1744
1808
1904
1989
2016
1978
1901
1819
1783
1808
1891
1983
2037
2029
1965
1889
1841
1833
1893
1994
2054
2045
1989
1904
1839
1813
1866
1966
2064
2095
2043
1952
1871
1840
1863
1942
2028
2082
2071
1990
1895
1829
1825
1886
1975
2047
2043
1981
1893
1823
1792
1834
1935
2032
2067
2031
1933
1833
1783
1810
1899
1990
2038
2032
1955
1866
1801
1803
1869
1962
2017
2025
1971
1903
1833
1804
1853
1954
2039
2068
2033
1949
1863
1823
1862
1958
2061
2118
2098
2022
1938
1901
1915
1990
2086
2141
2134
2069
1974
1923
1920
1973
2059
2127
2141
2097
2011
1927
1899
1945
2057
2163
2210
2182
2107
