2109
2054
2031
2063
2126
2199
2253
2251
2198
2129
2083
2086
2107
2133
2170
2179
2165
2137
2090
2060
2062
2096
2146
2178
2205
2189
2161
2168
2203
2263
2288
2262
2218
2160
2114
2081
2091
2119
2158
2187
2203
2193
2160
2118
2118
2144
2177
2224
2254
2246
2205
2162
2131
2139
2173
2211
2226
2192
2134
2071
2013
2005
2059
2122
2160
2167
2112
2047
2004
1984
1984
2000
2032
2047
2023
1975
1935
1910
1926
1951
1978
1978
1959
1936
1903
1877
1863
1899
1951
2011
2030
1990
1936
1872
1855
1866
1903
1953
1968
1945
1902
1860
1865
1895
1914
1956
1986
1962
1904
1853
1793
1793
1831
1901
1951
1949
1904
1844
1829
1815
1839
1881
1937
1964
1964
1937
1889
1851
1863
1891
1919
1939
1955
1917
1871
1835
1827
1859
1907
1943
1967
1970
1959
1926
1904
1911
1953
2006
2026
1991
1942
1897
1867
1872
1918
1983
2045
2064
2032
1970
1904
1883
1910
1949
1990
2000
1965
1872
1775
1725
1708
1759
1842
1889
1892
1835
1766
1711
1722
1797
1878
1954
1968
1904
1833
1776
1759
1774
1806
1854
1872
1854
1829
1808
1794
1791
1814
1867
1894
1872
1825
1774
1740
1712
1695
1744
1805
1815
1773
1739
1766
1869
2045
2254
2447
2548
2539
2423
2251
2064
1899
1792
1767
1786
1808
1815
1778
1744
1727
1761
1840
1904
1894
1828
1757
1711
1696
1728
1775
1803
1819
1802
1759
1715
1710
1759
1813
1872
1917
1931
1893
1807
1744
1741
1798
1853
1887
1889
1871
1798
1724
1697
1725
1791
1872
1917
1895
1837
1791
1773
1782
1829
1890
1927
1935
1898
1835
1795
1806
1867
1953
2013
2026
1985
1903
1820
1776
1807
1891
1985
2022
2004
1979
1942
1921
1936
1979
2047
2112
2111
2070
2006
1945
1929
1958
2024
2091
2091
2054
2000
1939
1921
1949
2011
2099
2161
2157
2086
2007
1979
1994
2061
2139
2161
2123
2058
1975
1913
1906
1961
2030
2096
2093
2032
1962
1884
1840
1843
1917
2002
2041
2010
1968
1908
1885
1886
1903
1936
1943
1935
1877
1794
1759
1763
1822
1911
1988
2001
1979
1924
1854
1824
1841
1902
1962
1967
1904
1814
1746
1742
1791
1869
1937
1972
1959
1916
1856
1824
1828
1869
1915
1967
1968
1904
1831
1766
1744
1792
1891
1965
1995
1941
1854
1785
1783
1821
1883
1973
2038
2064
2007
1907
1841
1830
1877
1949
2017
2031
1968
1888
1839
1840
1881
1951
2032
2064
2033
1963
1877
1838
1851
1909
1986
2032
2013
1961
1899
1860
1891
1936
2005
2065
2061
1995
1915
1870
1873
1907
1962
2010
2030
1990
1920
1859
1806
1805
1857
1936
1983
1961
1904
1849
1793
1779
1808
1878
1954
1994
1939
1821
1730
1724
1793
1903
2011
2078
2075
2000
1883
1798
1789
1869
1967
2065
2080
1989
1856
1735
1698
1729
1810
1920
1975
1954
1910
1876
1899
2015
2223
2419
2534
2501
2343
2111
1860
1687
1650
1741
1861
1934
1919
1812
1709
1644
1689
1808
1943
2017
2009
1918
1791
1738
1775
1882
2014
2091
2071
1984
1855
1726
1670
1726
1850
1985
2046
2026
1936
1847
1790
1807
1914
2058
2131
2112
2001
1887
1821
1814
1866
1950
2013
2022
1983
1911
1843
1830
1871
2026
2128
2133
2068
1983
1891
1849
1872
1968
2091
2145
2142
2067
1975
1883
1858
1931
2047
2131
2142
2093
1999
1920
1927
2012
2153
2253
2283
2233
2115
2013
1961
1984
2097
2218
2293
2287
2183
2057
1961
1968
2069
2195
2294
2301
2216
2093
1994
1968
2030
2167
2270
2302
2246
2142
2026
1963
1947
2034
2146
2192
2166
2070
1955
1885
1887
1963
2093
2191
2224
2167
2047
1921
1875
1932
2054
2163
2190
2144
2034
1922
1873
1904
2027
2174
2236
2183
2065
1920
1841
1849
1948
2071
2158
2159
2070
1956
1867
1840
1907
2039
2165
2211
2170
2043
1910
1842
1889
2011
2142
2214
2199
2112
2000
1930
1919
2000
2125
2177
2145
2070
1971
1889
1870
1951
2102
2220
2240
2174
2063
1946
1931
1985
2101
2221
2262
2229
2133
2006
1919
1905
1983
2117
2214
2240
2185
2096
2000
1957
1991
2113
2221
2243
2205
2128
2032
1991
2021
2126
2241
2302
2279
2193
2073
1979
1971
2071
2178
2248
2224
2121
1992
1866
1799
1847
1996
2128
2175
2143
2056
1951
1876
1866
1947
2074
2134
2128
2077
1980
1921
1917
1986
2101
2178
2183
2119
2025
1925
1882
1941
2047
2165
2193
2142
2032
1894
1807
1804
1904
2023
2105
2148
2155
2158
2199
2317
2479
2648
2742
2683
2482
2216
1982
1862
1891
2035
2177
2231
2192
2069
1951
1902
1916
2004
2103
2133
2091
1993
1893
1839
1851
1947
2099
2215
2235
2135
1969
1828
1772
1811
1932
2054
2096
2044
1963
1873
1825
1847
1961
2096
2138
2123
2045
1946
1865
1836
1904
2032
2133
2150
2102
2000
1919
1887
1920
1991
2086
2134
2119
2038
1943
1906
1947
2059
2149
2165
2135
2068
1979
1922
1946
2070
2220
2323
2331
2248
2112
1974
1908
1942
2071
2208
2258
2226
2144
2047
2000
2026
2134
2277
2363
2367
2306
2194
2086
2033
2094
2209
2299
2310
2236
2141
2034
2013
2097
2237
2350
2374
2333
2240
2122
2034
2018
2115
2230
2279
2261
2187
2084
1978
1959
2031
2158
2256
2269
2187
2067
1967
1915
1950
2057
2183
2255
2225
2116
1981
1900
1905
2001
2145
2222
2210
2129
2029
1935
1902
1954
2073
2165
2174
2107
1974
1857
1831
1906
2063
2176
2202
2183
2101
1998
1930
1941
2034
2160
2237
2240
2176
2064
1958
1934
1978
2081
2170
2188
2153
2064
1941
1881
1931
2073
2203
2251
2205
2085
1961
1905
1924
2032
2157
2209
2183
2093
1968
1891
1909
2027
2173
2258
2261
2209
2111
2010
1974
2029
2151
2235
2229
2161
2059
1952
1921
1969
2087
2186
2230
2197
2127
2021
1966
1963
2013
2126
2211
2211
2139
2022
1916
1872
1905
2013
2109
2133
2095
2000
1904
1847
1862
1946
2078
2145
2112
2017
1918
1846
1839
1906
2023
2111
2128
2055
1935
1837
1808
1873
2001
2077
2065
1975
1862
1741
1661
1661
1785
1968
2145
2294
2390
2451
2491
2545
2633
2686
2641
2495
2270
2039
1871
1808
1873
2022
2160
2192
2129
2003
1871
1783
1787
1872
1988
2041
2010
1934
1824
1753
1744
1787
1877
1945
1942
1872
1765
1671
1648
1710
1840
1948
1967
1932
1845
1740
1680
1702
1803
1903
1963
1949
1871
1746
1648
1655
1730
1849
1959
2016
1991
1904
1813
1762
1786
1890
2004
2071
2030
1923
1793
1721
1731
1816
1938
2017
2015
1947
1846
1758
1765
1871
2003
2121
2106
2003
1889
1797
1765
1840
1975
2114
2182
2148
2064
1967
1917
1935
2033
2159
2219
2209
2138
2022
1929
1927
2029
2167
2269
2271
2178
2028
1890
1838
1895
2023
2145
2191
2150
2034
1894
1835
1863
1961
2086
2123
2107
2014
1902
1826
1820
1901
2000
2085
2096
2038
1932
1814
1769
1831
1968
2096
2126
2064
1943
1834
1774
1786
1873
1996
2062
2038
1969
1860
1790
1773
1839
1969
2067
2069
1984
1873
1766
1712
1746
1881
1999
2082
2086
2004
1903
1804
1791
1866
1982
2043
2033
1968
1872
1796
1792
1872
1974
2035
2053
2001
1911
1826
1793
1840
1966
2077
2107
2047
1950
1840
1774
1781
1873
2015
2099
2079
1971
1842
1774
1787
1898
2018
2079
2038
1979
1898
1840
1818
1875
2004
2134
2163
2096
1973
1855
1782
1790
1877
2021
2121
2137
2070
1947
1857
1825
1881
2025
2159
2198
2111
1954
1815
1759
1774
1843
1930
1966
1931
1870
1807
1778
1805
1866
1959
2000
1983
1914
1802
1709
1687
1745
1861
1973
2021
1974
1847
1728
1669
1701
1822
1958
2007
1983
1886
1785
1728
1742
1805
1903
1943
1914
1822
1730
1699
1786
1997
2299
2559
2720
2717
2591
2387
2161
1970
1895
1915
1936
1935
1872
1782
1728
1742
1839
1967
2007
1967
1876
1765
1666
1648
1722
1849
1943
1936
1871
1773
1674
1638
1696
1819
1927
1942
1903
1835
1775
1728
1769
1843
1939
1986
1963
1861
1743
1654
1645
1712
1831
1933
1968
1947
1872
1779
1721
1745
1853
1973
2053
2027
1920
1810
1742
1746
1829
1966
2047
2038
1968
1854
1750
1728
1787
1920
2030
2087
2077
1991
1886
1811
1826
1931
2047
2099
2095
2017
1934
1885
1897
1983
2121
2218
2205
2118
1999
1916
1924
2009
2155
2261
2273
2192
2075
1946
1909
1961
2081
2194
2227
2164
2065
1927
1835
1838
1949
2107
2195
2198
2135
2034
1936
1873
1891
1990
2110
2135
2079
1968
1855
1795
1840
1965
2082
2114
2067
1967
1842
1763
1775
1869
1990
2070
2081
2009
1886
1778
1744
1806
1936
2064
2085
1999
1877
1792
1743
1765
1859
1943
1990
1968
1880
1767
1687
1700
1829
1995
2112
2112
2023
1883
1763
1729
1838
1971
2058
2042
1968
1866
1782
1753
1797
1910
2011
2059
2007
1922
1837
1766
1750
1831
1941
2000
1979
1911
1824
1761
1753
1834
1953
2055
2077
2019
1922
1854
1835
1853
1924
2018
2073
2025
1952
1854
1805
1816
1901
2011
2077
2078
1984
1856
1759
1740
1830
1959
2096
2159
2112
1973
1823
1767
1842
1998
2133
2155
2081
1953
1815
1727
1725
1827
1947
2006
2000
1920
1810
1743
1734
1783
1897
2000
2043
2001
1877
1777
1729
1767
1869
1967
1999
1979
1911
1808
1744
1776
1887
1994
2036
2021
1925
1799
1687
1663
1730
1859
1968
1987
1963
1934
1921
1990
2145
2347
2492
2543
2447
2233
1972
1758
1659
1697
1824
1935
1955
1916
1835
1753
1723
1775
1887
1974
1989
1937
1835
1743
1709
1760
1887
2027
2075
2032
1939
1829
1739
1727
1795
1919
2018
2032
1954
1840
1763
1762
1840
1983
2091
2111
2034
1918
1799
1745
1776
1886
2017
2097
2064
1943
1816
1743
1730
1847
2010
2123
2130
2057
1941
1854
1826
1871
1971
2061
2078
2023
1936
1861
1838
1887
1997
2105
2157
2159
2089
1994
1935
1949
2046
2192
2278
2285
2210
2103
2000
1975
2026
2160
2292
2364
2319
2181
2037
1959
1973
2103
2250
2317
2288
2186
2083
2011
2005
2082
2179
2255
2260
2203
2096
1986
1943
1984
2091
2193
2222
2174
2077
1989
1945
1985
2098
2192
2222
2163
2061
1933
1853
1855
1950
2074
2162
2185
2125
1999
1901
1883
1981
2087
2203
2209
2114
1968
1823
1753
1787
1919
2065
2145
2131
2041
1935
1865
1893
1991
2114
2181
2191
2118
2009
1918
1887
1949
2080
2163
2188
2154
2060
1936
1888
1953
2099
2231
2286
2242
2150
2033
1937
1936
2007
2130
2226
2224
2155
2034
1937
1925
1993
2117
2238
2274
2224
2105
1998
1977
2034
2155
2263
2313
2269
2173
2063
1985
1972
2062
2192
2275
2267
2193
2096
2003
1989
2064
2203
2319
2351
2271
2158
2065
2009
2018
2101
2193
2251
2251
2192
2074
1955
1919
1987
2107
2190
2209
2157
2055
1952
1917
1955
2043
2138
2160
2130
2054
1942
1887
1921
2042
2192
2256
2214
2112
2015
1942
1931
2002
2124
2194
2192
2129
2019
1916
1845
1855
1968
2070
2109
2063
1990
1952
1998
2149
2384
2635
2791
2770
2624
2426
2256
2141
2133
2176
2213
2214
2178
2074
1955
1931
1997
2128
2224
2240
2166
2032
1920
1847
1869
1977
2111
2160
2142
2060
1937
1835
1802
1865
1981
2075
2087
2033
1936
1859
1841
1899
2019
2146
2184
2139
2020
1904
1830
1838
1926
2061
2127
2103
2038
1967
1904
1890
1968
2101
2192
2192
2122
1993
1862
1821
1903
2047
2202
2256
2221
2084
1932
1851
1883
2002
2128
2192
2197
2135
2037
1972
1987
2102
2219
2288
2295
2231
2103
1974
1926
1974
2112
2227
2267
2247
2175
2073
2018
2032
2131
2271
2347
2315
2211
2086
1995
1986
2091
2207
2299
2306
2250
2141
2025
1984
2055
2187
2291
2290
2221
2115
2001
1939
1975
2091
2201
2231
2198
2107
1977
1885
1858
1943
2081
2176
2195
2139
2023
1922
1899
1962
2071
2162
2186
2127
2016
1903
1829
1844
1936
2066
2143
2130
2033
1920
1840
1847
1939
2061
2147
2157
2096
1991
1872
1809
1841
1957
2082
2142
2122
2023
1919
1862
1882
1964
2089
2173
2165
2080
1966
1879
1888
1983
2119
2199
2182
2100
1962
1847
1808
1868
1988
2122
2175
2128
2029
1933
1913
1952
2031
2125
2157
2128
2054
1943
1862
1882
1998
2147
2255
2256
2167
2033
1931
1904
1962
2070
2171
2191
2112
1954
1807
1733
1775
1914
2039
2114
2125
2047
1936
1840
1796
1857
1947
2029
2038
1979
1878
1782
1750
1808
1936
2064
2110
2063
1929
1815
1761
1771
1881
2018
2106
2081
1968
1819
1705
1654
1715
1849
1952
1946
1872
1762
1687
1728
1899
2186
2467
2686
2772
2745
2629
2463
2315
2234
2207
2192
2171
2112
2003
1910
1862
1913
2018
2113
2109
1999
1863
1741
1690
1738
1856
1983
2031
1981
1881
1763
1677
1661
1742
1872
1953
1959
1898
1789
1690
1661
1703
1827
1937
1962
1914
1806
1695
1635
1683
1835
1984
2037
1987
1889
1785
1735
1775
1871
1968
1996
1949
1851
1741
1678
1706
1808
1931
2018
2036
1989
1893
1779
1728
1792
1920
2027
2070
2027
1966
1897
1854
1863
1980
2113
2182
2195
2112
2003
1914
1875
1936
2053
2157
2162
2119
2038
1976
1957
2018
2161
2259
2271
2205
2110
2002
1941
1969
2070
2181
2228
2194
2090
1984
1907
1898
1983
2101
2192
2208
2149
2047
1936
1883
1917
2057
2192
2241
2173
2033
1921
1847
1843
1915
2027
2115
2119
2034
1918
1835
1815
1879
2001
2107
2128
2073
1977
1893
1851
1878
1999
2087
2107
2036
1922
1808
1731
1733
1823
1972
2087
2078
1981
1840
1742
1734
1833
1984
2097
2115
2058
1950
1846
1811
1859
1962
2070
2122
2087
1959
1844
1801
1839
1930
2043
2096
2053
1963
1865
1791
1771
1827
1942
2039
2064
2007
1911
1814
1776
1835
1949
2067
2117
2085
1983
1853
1751
1741
1843
1984
2096
2097
2031
1931
1850
1839
1914
2034
2134
2154
2093
1989
1877
1846
1901
2023
2123
2146
2107
2026
1936
1883
1886
1954
2063
2111
2055
1917
1787
1716
1712
1773
1886
1968
1979
1921
1806
1712
1681
1749
1873
1984
2000
1966
1875
1783
1729
1759
1859
1972
2047
2055
1985
1871
1769
1755
1814
1921
2005
2018
1933
1815
1687
1616
1647
1765
1899
1988
2033
2062
2080
2160
2301
2483
2635
2666
2544
2311
2017
1762
1626
1661
1808
1961
2025
1970
1835
1724
1691
1737
1843
1951
1986
1939
1831
1719
1664
1674
1776
1897
1979
2001
1942
1847
1739
1690
1759
1873
1966
1971
1911
1804
1697
1667
1725
1851
1973
2023
1999
1897
1787
1724
1725
1808
1933
2005
2002
1921
1804
1708
1681
1744
1909
2041
2066
1989
1873
1776
1731
1774
1890
2019
2083
2066
1975
1851
1781
1792
1891
2032
2125
2128
2058
1937
1850
1838
1921
2066
2190
2206
2128
2014
1911
1870
1921
2042
2174
2211
2179
2077
1963
1902
1918
2007
2123
2209
2219
2160
2063
1961
1924
1978
2106
2190
2209
2151
2031
1931
1902
1942
2064
2138
2149
2094
1999
1927
1872
1881
1949
2047
2114
2101
2007
1872
1762
1730
1802
1935
2045
2074
2017
1917
1808
1760
1793
1904
2026
2082
2038
1938
1826
1729
1712
1821
1969
2055
2035
1947
1840
1744
1725
1825
1965
2071
2117
2070
1920
1778
1714
1730
1827
1951
2014
1987
1897
1783
1712
1722
1826
1971
2075
2087
1997
1881
1786
1778
1866
1984
2106
2138
2073
1966
1854
1799
1829
1934
2055
2126
2095
1973
1855
1789
1814
1925
2045
2112
2109
2035
1949
1874
1851
1904
2006
2093
2114
2038
1927
1841
1799
1837
1959
2080
2142
2133
2064
1964
1897
1890
1965
2087
2150
2141
2055
1936
1849
1802
1861
2006
2118
2154
2117
2006
1872
1793
1785
1850
1941
1993
1977
1917
1819
1759
1767
1851
1968
2061
2064
1984
1879
1802
1770
1811
1916
2020
2065
2015
1915
1808
1754
1790
1894
2006
2061
2029
1943
1821
1723
1734
1876
2107
2302
2397
2399
2333
2247
2193
2182
2189
2167
2037
1878
1711
1611
1588
1661
1808
1963
2061
2017
1887
1769
1707
1731
1842
1979
2075
2078
2000
1901
1808
1782
1842
1968
2071
2110
2085
1967
1843
1776
1794
1887
1996
2058
2033
1941
1827
1759
1783
1890
2019
2108
2096
2000
1877
1791
1787
1865
1999
2120
2155
2098
2010
1925
1876
1903
2000
2145
2198
2182
2111
1983
1910
1920
2023
2153
2224
2228
2175
2058
1950
1921
1998
2148
2234
2230
2183
2095
2000
1982
2047
2175
2283
2322
2282
2195
2086
2013
2026
2129
2269
2356
2364
2279
2142
2039
2031
2089
2214
2321
2359
2311
2204
2084
2029
2064
2164
2267
2307
2285
2189
2079
1997
1990
2091
2213
2290
2282
2192
2041
1898
1840
1900
2039
2198
2289
2275
2149
1986
1899
1904
2010
2139
2201
2185
2099
1975
1900
1902
1982
2111
2199
2204
2141
2012
1907
1877
1918
2015
2134
2193
2153
2021
1872
1799
1853
1967
2122
2219
2214
2109
1975
1892
1907
2003
2111
2153
2160
2102
2003
1903
1872
1939
2064
2173
2183
2135
2047
1959
1910
1938
2058
2165
2222
2193
2112
2003
1923
1887
1966
2090
2173
2178
2109
2000
1936
1923
1990
2131
2251
2283
2206
2069
1946
1887
1920
2035
2174
2245
2231
2150
2029
1931
1927
2029
2172
2290
2322
2255
2112
1975
1927
1968
2055
2150
2176
2104
1983
1886
1840
1885
1974
2096
2176
2176
2090
1936
1815
1793
1878
1989
2082
2093
2034
1930
1851
1835
1896
2000
2108
2137
2095
1989
1894
1851
1874
1968
2065
2111
2097
1993
1843
1726
1712
1809
1962
2078
2131
2138
2132
2177
2272
2410
2559
2671
2660
2530
2332
2129
1971
1936
2041
2187
2262
2229
2109
1951
1843
1829
1870
1957
2034
2053
1995
1885
1788
1761
1823
1945
2037
2058
2000
1889
1765
1690
1713
1835
1964
2047
2053
1970
1887
1828
1823
1891
2007
2115
2135
2065
1923
1790
1743
1795
1915
2026
2047
2009
1922
1831
1793
1813
1924
2062
2118
2098
1999
1875
1795
1790
1870
1999
2090
2096
2038
1936
1825
1785
1858
2013
2176
2238
2195
2068
1929
1838
1840
1943
2083
2167
2172
2133
2061
1990
1969
2029
2150
2251
2278
2225
2128
2032
1965
1971
2064
2154
2207
2192
2103
1984
1920
1937
2041
2171
2193
2143
2065
1983
1905
1888
1952
2087
2179
2180
2101
1983
1894
1856
1909
2015
2122
2141
2105
2026
1936
1901
1905
1998
2128
2198
2183
2079
1942
1856
1859
1921
2020
2108
2127
2075
1967
1845
1802
1839
1954
2071
2111
2066
1970
1869
1799
1823
1936
2084
2146
2128
2038
1914
1818
1813
1894
2011
2111
2131
2097
2000
1907
1850
1866
1936
2027
2082
2086
2026
1946
1886
1887
1987
2094
2150
2138
2065
1951
1856
1829
1907
2032
2123
2140
2064
1958
1869
1830
1875
1994
2107
2139
2092
2000
1920
1882
1877
1973
2096
2173
2170
2085
1950
1857
1845
1934
2079
2192
2218
2157
2058
1954
1916
1951
2065
2179
2227
2176
2069
1921
1805
1776
1857
1985
2055
2062
1971
1849
1748
1732
1793
1930
2047
2095
2038
1921
1810
1779
1842
1983
2122
2162
2114
2003
1883
1815
1827
1923
2039
2119
2107
2003
1863
1751
1744
1819
1946
2033
2033
1968
1920
1930
2007
2194
2448
2675
2815
2829
2711
2480
2254
2100
2096
2156
2192
2186
2145
2074
1969
1918
1963
2070
2153
2129
2064
1957
1840
1790
1826
1943
2073
2109
2047
1925
1810
1732
1761
1849
1985
2082
2095
2013
1875
1759
1738
1821
1942
2028
2053
1998
1889
1765
1718
1776
1888
1987
2017
1998
1917
1793
1733
1751
1868
2002
2083
2047
1951
1850
1782
1776
1865
2019
2138
2148
2095
1983
1868
1827
1887
2000
2106
2156
2119
2027
1921
1856
1867
1951
2071
2147
2147
2071
1956
1877
1887
2018
2172
2281
2293
2238
2143
2031
1975
1995
2122
2269
2311
2224
2106
1987
1930
1952
2067
2197
2273
2271
2191
2066
1965
1934
2006
2140
2224
2217
2146
2029
1904
1858
1894
1996
2095
2123
2096
2036
1955
1890
1888
1975
2096
2151
2140
2047
1920
1823
1795
1847
1971
2087
2112
2047
1941
1850
1810
1855
2000
2128
2163
2111
1989
1873
1800
1809
1899
2031
2098
2090
2000
1890
1794
1776
1856
2022
2151
2176
2118
2000
1893
1839
1869
1951
2055
2083
2032
1962
1866
1795
1786
1885
2031
2143
2169
2108
1991
1872
1817
1854
1959
2082
2128
2101
2003
1898
1831
1871
1968
2061
2105
2079
2003
1918
1874
1896
1983
2096
2154
2128
2055
1952
1891
1904
1986
2112
2176
2181
2126
2016
1911
1856
1887
1993
2103
2157
2127
2046
1967
1921
1932
1999
2125
2202
2221
2153
2038
1937
1893
1931
2026
2091
2077
2019
1920
1791
1739
1788
1899
2014
2066
2025
1904
1781
1721
1745
1851
1984
2066
2064
1993
1886
1789
1738
1792
1914
2009
2054
2007
1920
1809
1755
1788
1904
2019
2053
1997
1863
1703
1583
1575
1678
1827
1958
2033
2076
2127
2221
2368
2543
2700
2767
2689
2490
2224
1974
1823
1797
1901
2038
2112
2096
1999
1894
1817
1795
1821
1885
1930
1919
1843
1743
1666
1668
1777
1921
2019
2036
1978
1857
1741
1681
1708
1819
1950
2015
1989
1883
1744
1646
1647
1729
1862
1950
1967
1904
1811
1745
1743
1808
1935
2011
2026
1981
1891
1779
1727
1755
1881
2011
2084
2021
1932
1811
1748
1758
1851
1968
2043
2039
1970
1875
1803
1800
1889
2032
2143
2153
2089
1983
1879
1831
1872
2000
2141
2206
2189
2095
1955
1886
1901
2011
2168
2266
2269
2192
2079
1999
1990
2069
2183
2269
2288
2235
2128
2005
1959
1985
2082
2187
2249
2240
2154
2037
1951
1936
2003
2112
2176
2160
2091
1975
1903
1887
1947
2035
2110
2108
2038
1925
1814
1763
1806
1950
2089
2103
2044
1952
1834
1750
1763
1856
1973
2065
2064
1991
1894
1824
1810
1869
1968
2029
2039
1977
1859
1734
1717
1787
1915
2032
2091
2075
1985
1872
1777
1751
1827
1939
2023
2019
1945
1840
1749
1745
1834
1971
2079
2097
2016
1897
1779
1738
1783
1877
1973
2009
1991
1939
1877
1807
1799
1892
2011
2074
2064
2005
1913
1823
1774
1823
1936
2053
2094
2034
1932
1818
1757
1769
1865
1984
2058
2031
1974
1861
1776
1778
1887
2015
2096
2095
2015
1911
1825
1814
1882
2001
2112
2147
2109
1994
1886
1843
1878
2003
2135
2186
2128
1990
1863
1790
1802
1899
2014
2096
2096
1991
1851
1729
1681
1717
1840
1954
1999
1965
1871
1770
1717
1755
1873
1989
2011
1952
1840
1715
1642
1663
1789
1941
2054
2064
1995
1883
1769
1742
1815
1935
2027
2030
1968
1872
1754
1701
1735
1851
2007
2137
2197
2225
2217
2224
2269
2337
2382
2330
2174
1943
1715
1561
1519
1633
1801
1947
2011
1970
1865
1747
1693
1713
1798
1936
2005
1979
1890
1759
1692
1702
1792
1936
2059
2058
1975
1860
1755
1684
1723
1827
1943
2000
1970
1899
1812
1776
1795
1875
1980
2027
2000
1904
1807
1747
1788
1892
2023
2090
2037
1927
1813
1727
1743
1823
1955
2076
2103
2043
1950
1840
1773
1799
1927
2080
2145
2096
1989
1887
1818
1839
1937
2066
2144
2151
2094
1983
1878
1860
1946
2089
2220
2271
2231
2125
2003
1941
1947
2037
2167
2227
2217
2133
2019
1961
1971
2039
2160
2240
2239
2160
2071
2005
2001
2057
2160
2240
2249
2160
2039
1927
1873
1901
2021
2150
2194
2157
2058
1936
1847
1840
1909
2042
2102
2103
2038
1936
1828
1791
1843
1968
2092
2128
2063
1922
1802
1769
1815
1948
2094
2151
2115
2010
1874
1793
1806
1902
2054
2126
2082
1978
1855
1771
1753
1834
1975
2102
2130
2071
1953
1836
1775
1807
1936
2101
2177
2143
2018
1890
1803
1797
1892
2023
2121
2128
2059
1919
1813
1795
1828
1954
2069
2109
2091
2026
1936
1883
1923
2011
2126
2189
2160
2062
1940
1870
1886
1983
2111
2203
2209
2128
1984
1872
1824
1877
2014
2141
2175
2123
2021
1905
1865
1894
1998
2121
2191
2173
2082
1962
1865
1861
1949
2090
2176
2186
2131
2057
1971
1935
1977
2081
2163
2183
2138
2022
1904
1855
1905
1983
2086
2122
2091
1984
1850
1751
1773
1903
2087
2183
2187
2096
1974
1869
1831
1877
1998
2122
2176
2146
2057
1942
1871
1872
1951
2070
2134
2119
2005
1856
1762
1765
1846
1963
2069
2112
2079
1995
1957
2032
2218
2439
2635
2687
2624
2423
2176
1946
1819
1821
1911
1989
2003
1949
1862
1778
1787
1869
2007
2112
2119
2063
1958
1858
1804
1840
1971
2115
2165
2129
1994
1862
1808
1837
1945
2073
2150
2143
2077
1998
1933
1891
1904
2000
2119
2161
2108
1999
1878
1835
1882
1998
2101
2141
2100
1994
1898
1857
1898
2005
2105
2153
2128
2055
1968
1892
1870
1941
2086
2184
2199
2139
2032
1949
1917
1955
2065
2176
2224
2192
2111
2019
1977
1998
2096
2226
2313
2304
2239
2141
2061
2061
2146
2267
2363
2365
2272
2135
2028
1980
2015
2146
2272
2339
2314
2230
2138
2059
2053
2139
2259
2349
2329
2208
2055
1943
1941
2023
2159
2255
2275
2196
2079
1974
1947
1997
2112
2204
2229
2176
2061
1941
1890
1910
1991
2096
2147
2131
2039
1930
1846
1840
1911
2039
2146
2166
2091
1982
1877
1859
1903
2022
2153
2189
2123
1999
1877
1799
1797
1893
2037
2132
2134
2047
1932
1845
1831
1903
2007
2109
2128
2077
1964
1857
1798
1828
1949
2087
2155
2142
2073
1971
1875
1840
1915
2032
2104
2090
1999
1887
1821
1843
1938
2082
2187
2205
2145
2006
1904
1840
1863
1955
2086
2135
2110
2014
1909
1842
1857
1967
2098
2182
2160
2085
1985
1923
1923
2001
2114
2198
2199
2128
2027
1919
1877
1915
2080
2219
2256
2185
2076
1959
1898
1909
2003
2142
2229
2210
2110
1937
1814
1760
1807
1936
2027
2046
1996
1904
1808
1776
1818
1959
2095
2118
2070
1959
1834
1739
1760
1872
2025
2125
2127
2043
1918
1823
1808
1877
1990
2091
2101
2046
1936
1815
1744
1760
1856
1968
2015
1991
1933
1885
1904
2034
2273
2519
2690
2717
2618
2398
2186
2033
2022
2118
2199
2205
2122
2009
1883
1809
1824
1950
2070
2099
2053
1939
1845
1781
1785
1854
1965
2029
2022
1957
1854
1744
1728
1776
1868
1951
1966
1917
1817
1728
1681
1730
1859
1999
2064
2032
1933
1795
1694
1683
1803
1941
2017
2023
1970
1887
1818
1787
1840
1922
1993
2027
2000
1911
1818
1776
1837
1958
2078
2123
2077
1968
1854
1787
1802
1899
2018
2107
2112
2060
1973
1898
1891
1963
2078
2189
2192
2109
1987
1898
1885
1952
2082
2207
2282
2272
2176
2062
1962
1957
2055
2193
2277
2256
2160
2032
1937
1931
2000
2115
2195
2229
2194
2123
2033
1997
2032
2127
2205
2207
2143
2039
1954
1911
1904
1982
2112
2190
2169
2084
1965
1879
1867
1920
2031
2119
2135
2064
1953
1840
1792
1842
1962
2064
2084
2047
1967
1879
1818
1826
1914
2032
2101
2065
1972
1891
1827
1849
1933
2071
2179
2198
2128
2001
1859
1781
1817
1941
2075
2114
2063
1943
1831
1757
1770
1853
1978
2080
2083
2019
1920
1840
1839
1920
2030
2129
2143
2081
1971
1862
1823
1871
1986
2112
2170
2141
2032
1920
1861
1872
1969
2087
2141
2108
2030
1938
1875
1874
1933
2032
2128
2160
2111
2010
1895
1859
1900
1995
2106
2155
2144
2065
1951
1867
1882
2000
2158
2256
2262
2178
2053
1943
1919
1968
2057
2137
2167
2119
1987
1837
1757
1786
1885
2022
2093
2079
1986
1871
1784
1781
1872
1988
2043
2029
1968
1891
1814
1815
1899
2023
2112
2110
2026
1919
1811
1737
1745
1875
2036
2119
2101
2003
1872
1762
1740
1777
1867
1939
1971
1961
1923
1942
2070
2320
2627
2864
2925
2816
2606
2367
2166
2071
2083
2175
2256
2258
2170
2063
1951
1903
1958
2035
2077
2043
1967
1846
1744
1702
1758
1887
1993
2026
1988
1902
1810
1763
1786
1857
1955
2001
1947
1868
1771
1719
1733
1827
1965
2058
2043
1952
1836
1725
1687
1733
1859
1969
2047
2058
1963
1842
1787
1821
1923
2054
2134
2112
1989
1839
1727
1725
1823
1959
2047
2065
2002
1914
1835
1834
1895
2007
2112
2129
2082
1991
1907
1902
1951
2068
2173
2225
2189
2091
1984
1949
1974
2083
2195
2254
2238
2183
2077
1990
1994
2077
2201
2304
2321
2263
2149
2034
1972
1970
2081
2183
2224
2209
2139
2019
1941
1957
2064
2185
2250
2237
2142
2013
1915
1895
1968
2094
2173
2192
2139
2009
1868
1795
1818
1925
2074
2157
2145
2042
1904
1815
1813
1904
2038
2122
2095
2000
1882
1792
1783
1861
2000
2105
2121
2039
1929
1833
1785
1814
1911
2018
2074
2026
1905
1773
1703
1713
1826
1970
2071
2085
2019
1922
1826
1791
1841
1941
2035
2064
2020
1911
1791
1738
1783
1911
2047
2101
2053
1916
1783
1698
1712
1831
1982
2078
2074
1970
1845
1774
1767
1838
1985
2085
2123
2079
1955
1836
1805
1840
1934
2038
2103
2095
2000
1882
1791
1782
1857
1970
2062
2094
2043
1938
1845
1823
1885
1977
2079
2096
2020
1902
1805
1776
1829
1953
2088
2158
2145
2058
1934
1833
1808
1895
2053
2155
2158
2079
1947
1815
1777
1815
1908
1987
1989
1921
1814
1718
1664
1691
1799
1934
2003
1993
1904
1795
1728
1712
1776
1890
1968
1971
1877
1794
1691
1660
1715
1855
1973
2022
1985
1866
1729
1647
1671
1787
1909
1977
1965
1886
1763
1681
1723
1895
2162
2415
2582
2608
2491
2320
2159
2061
2007
1985
1949
1867
1778
1690
1635
1671
1790
1907
1971
1942
1849
1727
1647
1653
1739
1874
1979
1975
1897
1762
1658
1630
1682
1804
1908
1950
1920
1844
1750
1706
1711
1775
1868
1903
1891
1808
1711
1643
1630
1731
1861
1983
1985
1932
1811
1695
1669
1728
1844
1934
1961
1919
1824
1731
1701
1749
1870
1998
2079
2038
1925
1813
1761
1767
1847
1964
2059
2070
2011
1899
1792
1792
1877
2003
2128
2161
2117
2022
1905
1826
1851
1975
2091
2161
2161
2094
2003
1952
1954
2041
2189
2283
2282
2208
2085
1987
1968
2027
2172
2285
2282
2193
2064
1936
1876
1889
1978
2105
2183
2175
2076
1949
1878
1886
1962
2086
2175
2165
2067
1931
1823
1782
1822
1926
2039
2090
2047
1939
1813
1742
1767
1881
2001
2064
2038
1958
1862
1793
1767
1858
1991
2081
2086
2016
1907
1807
1742
1790
1910
2026
2067
2010
1925
1843
1811
1850
1936
2022
2055
2027
1942
1855
1782
1785
1866
1982
2077
2107
2032
1920
1799
1740
1783
1906
2035
2096
2064
1968
1856
1771
1750
1856
1979
2075
2075
2004
1904
1811
1777
1850
1968
2070
2087
2017
1935
1834
1802
1845
1968
2084
2109
2067
1979
1865
1794
1810
1919
2055
2119
2108
2021
1886
1776
1771
1875
2018
2123
2130
2075
1968
1855
1792
1825
1962
2115
2193
2175
2059
1904
1840
1861
1971
2103
2160
2132
2054
1936
1850
1855
1927
2023
2099
2103
2026
1887
1777
1760
1825
1963
2087
2151
2108
1966
1819
1727
1742
1843
1968
2039
2034
1962
1856
1781
1761
1852
1990
2110
2126
2045
1923
1826
1776
1801
1891
2000
2035
1997
1865
1741
1648
1664
1808
1999
2160
2245
2256
2256
2257
2298
2375
2421
2398
2267
2041
1808
1644
1606
1695
1871
2031
2112
2088
1968
1818
1733
1744
1875
1991
2042
2021
1935
1837
1773
1777
1851
1982
2081
2095
2035
1927
1841
1803
1836
1930
2017
2046
2007
1911
1801
1765
1797
1907
2034
2103
2069
1947
1811
1740
1751
1856
1998
2118
2153
2099
1989
1855
1778
1807
1931
2041
2098
2082
2013
1925
1865
1879
1984
2128
2194
2176
2091
1984
1889
1887
1957
2087
2193
2241
2186
2077
1970
1930
1962
2059
2174
2197
2146
2027
1934
1913
1987
2143
2292
2358
2317
2210
2085
1985
1968
2032
2181
2282
2291
2235
2131
2041
1995
2000
2093
2179
2219
2190
2082
1953
1872
1861
1930
2037
2109
2103
2053
1959
1887
1885
1965
2090
2171
2170
2130
2032
1916
1839
1845
1923
2019
2063
2014
1925
1849
1824
1852
1939
2083
2166
2160
2077
1955
1839
1803
1871
1979
2061
2064
2026
1933
1838
1792
1839
1957
2077
2130
2096
1988
1872
1808
1831
1910
2001
2046
2034
1968
1873
1806
1809
1891
2017
2113
2129
2082
2000
1919
1879
1936
2023
2113
2131
2081
1965
1845
1808
1839
1926
2067
2143
2145
2076
1955
1856
1833
1914
2055
2157
2171
2112
1993
1897
1855
1894
2007
2128
2177
2160
2081
1969
1923
1966
2064
2165
2213
2170
2090
1973
1890
1875
1930
2081
2181
2218
2183
2103
1981
1903
1924
2039
2174
2240
2230
2143
2014
1926
1929
2014
2113
2154
2131
2073
1965
1872
1854
1936
2080
2185
2195
2118
1987
1872
1839
1882
1984
2100
2154
2128
2039
1954
1900
1907
1988
2112
2166
2171
2111
1995
1887
1871
1936
2047
2133
2129
2042
1921
1808
1757
1815
1973
2181
2350
2458
2489
2471
2435
2421
2464
2498
2459
2315
2133
1966
1873
1875
1961
2103
2211
2225
2149
2021
1904
1840
1873
1991
2089
2139
2121
2039
1933
1842
1833
1921
2043
2128
2137
2083
1950
1867
1834
1907
2042
2130
2135
2090
1991
1908
1873
1902
1994
2109
2151
2122
2018
1904
1840
1851
1938
2065
2138
2117
2061
1961
1872
1846
1933
2087
2209
2233
2163
2033
1903
1845
1882
1999
2151
2219
2189
2098
1973
1904
1935
2055
2193
2279
2259
2179
2066
1984
1968
2034
2156
2250
2290
2250
2154
2047
1983
2005
2125
2255
2323
2317
2246
2158
2087
2089
2182
2293
2335
2298
2209
2110
2015
1985
2045
2173
2291
2335
2283
2183
2066
1993
2019
2126
2208
2213
2169
2076
1994
1956
1975
2063
2167
2224
2224
2152
2034
1935
1902
1939
2042
2127
2157
2112
2019
1927
1847
1855
1968
2113
2181
2160
2074
1966
1894
1885
1970
2100
2166
2157
2079
1943
1843
1815
1871
1999
2124
2159
2101
2022
1934
1879
1889
1968
2079
2131
2099
2003
1906
1854
1874
1962
2096
2199
2225
2133
1996
1869
1839
1911
2043
2159
2198
2151
2042
1931
1869
1883
1968
2116
2188
2169
2067
1949
1860
1841
1923
2055
2144
2157
2081
1969
1873
1849
1915
2033
2149
2168
2119
2007
1904
1845
1899
2019
2130
2191
2161
2058
1923
1835
1824
1943
2107
2199
2204
2134
2032
1945
1927
2001
2128
2239
2271
2206
2086
1953
1889
1891
1969
2083
2145
2117
2007
1874
1778
1763
1841
1962
2054
2073
2011
1889
1790
1747
1807
1949
2067
2107
2081
2000
1904
1831
1825
1903
2002
2063
2043
1969
1856
1761
1764
1867
2023
2134
2125
2022
1859
1718
1671
1753
1946
2147
2283
2365
2394
2395
2416
2480
2559
2613
2539
2375
2177
1995
1888
1899
1984
2118
2210
2218
2128
2000
1885
1817
1839
1934
2032
2081
2064
1972
1820
1728
1734
1846
1970
2027
2002
1901
1744
1630
1613
1696
1861
1975
2006
1951
1840
1739
1712
1776
1873
1979
2026
1971
1878
1776
1730
1746
1847
1973
2053
2041
1959
1841
1734
1703
1791
1919
2014
2038
1994
1904
1826
1803
1856
1951
2057
2096
2032
1919
1808
1765
1808
1935
2082
2159
2129
2053
1938
1872
1884
1962
2081
2175
2167
2096
1993
1916
1904
1958
2096
2226
2295
2259
2155
2025
1931
1933
2027
2130
2179
2153
2070
1973
1899
1887
1959
2078
2163
2175
2119
2017
1940
1923
1961
2061
2166
2187
2134
2027
1914
1854
1889
1999
2121
2176
2155
2066
1914
1791
1757
1850
1989
2090
2093
2031
1936
1870
1840
1863
1935
2019
2027
1949
1850
1747
1728
1798
1910
2030
2101
2103
2019
1890
1799
1791
1869
2007
2112
2119
2043
1923
1809
1776
1846
1981
2109
2143
2089
1979
1862
1790
1803
1915
2047
2122
2094
1984
1853
1759
1767
1881
2025
2113
2105
1984
1871
1773
1744
1821
1948
2047
2075
2030
1939
1845
1807
1839
1936
2023
2095
2074
1985
1888
1813
1803
1863
1970
2058
2083
2022
1927
1847
1808
1841
1943
2064
2107
2061
1964
1872
1813
1825
1907
2018
2093
2098
2016
1890
1783
1758
1848
2026
2175
2227
2192
2065
1918
1856
1901
2019
2123
2149
2087
1951
1831
1771
1794
1876
1984
2035
2002
1904
1776
1702
1712
1811
1934
2007
1975
1872
1745
1653
1633
1698
1830
1953
2001
1988
1889
1776
1705
1712
1819
1939
2003
1975
1872
1741
1626
1615
1675
1790
1869
1872
1802
1744
1766
1872
2112
2423
2689
2819
2816
2666
2431
2187
2002
1973
2019
2071
2058
1973
1863
1783
1759
1831
1917
1974
1970
1906
1792
1680
1624
1671
1794
1906
1922
1867
1744
1631
1562
1584
1693
1815
1894
1913
1882
1776
1667
1606
1634
1740
1839
1872
1838
1751
1677
1659
1715
1822
1923
1943
1903
1808
1712
1648
1658
1759
1887
1969
1967
1873
1770
1682
1665
1755
1923
2047
2067
1984
1867
1743
1705
1790
1935
2059
2069
1991
1872
1751
1692
1721
1843
1998
2099
2107
2041
1942
1857
1859
1947
2098
2201
2237
2186
2079
1978
1965
2037
2154
2240
2256
2192
2093
1979
1917
1935
2044
2167
2240
2212
2112
1989
1906
1903
1970
2091
2185
2214
2167
2064
1935
1863
1885
1999
2112
2137
2086
1956
1846
1787
1801
1891
1991
2054
2038
1951
1839
1758
1770
1862
1983
2071
2078
1995
1879
1786
1757
1819
1947
2059
2067
2000
1903
1780
1715
1721
1826
1953
2027
2022
1953
1856
1783
1771
1849
1974
2071
2082
2016
1917
1839
1782
1824
1926
2007
2007
1939
1865
1775
1718
1750
1871
2015
2094
2083
1962
1811
1711
1716
1831
2022
2138
2155
2079
1942
1820
1776
1838
1935
2042
2069
2032
1942
1837
1755
1739
1825
1965
2063
2090
2032
1934
1847
1840
1916
2035
2117
2106
2026
1923
1819
1792
1849
1961
2063
2097
2074
1999
1898
1809
1821
1914
2026
2090
2071
1995
1909
1843
1839
1910
2031
2145
2167
2124
2013
1923
1904
1954
2026
2118
2150
2128
2055
1967
1904
1904
1971
2083
2116
2082
1984
1858
1766
1759
1839
1963
2054
2080
2014
1923
1815
1774
1803
1915
2032
2064
2013
1920
1815
1769
1791
1877
1985
2057
2064
1994
1891
1811
1783
1856
1981
2039
2001
1913
1796
1686
1641
1679
1813
1982
2141
2272
2353
2402
2426
2446
2471
2448
2331
2139
1921
1741
1621
1612
1747
1924
2056
2071
1999
1879
1763
1713
1742
1839
1951
2000
1995
1900
1801
1744
1761
1858
1983
2059
2037
1961
1840
1719
1675
1743
1862
1958
1988
1938
1846
1759
1740
1803
1937
2064
2105
2053
1935
1827
1751
1757
1843
1951
2033
2038
1989
1897
1793
1767
1853
1979
2078
2084
2007
1885
1773
1746
1827
1984
2145
2194
2145
2032
1901
1801
1811
1924
2070
2159
2159
2071
1968
1885
1867
1951
2085
2201
2250
2209
2107
1983
1930
1988
2134
2269
2325
2289
2176
2037
1951
1933
2026
2173
2261
2259
2191
2077
1969
1939
2002
2141
2255
2288
2223
2096
1947
1870
1883
1973
2096
2155
2125
2044
1954
1891
1901
1989
2109
2173
2151
2060
1936
1845
1808
1871
2006
2107
2112
2031
1907
1809
1781
1834
1942
2042
2097
2095
2007
1887
1807
1811
1889
2009
2110
2107
2023
1877
1760
1747
1827
1963
2075
2113
2064
1948
1858
1837
1867
1963
2064
2091
2039
1950
1857
1808
1803
1879
1998
2071
2065
1991
1903
1808
1808
1886
2028
2128
2128
2061
1936
1831
1791
1845
1954
2083
2131
2102
2005
1883
1792
1792
1902
2036
2125
2128
2047
1939
1849
1840
1920
2043
2143
2157
2094
1987
1855
1791
1846
1999
2137
2157
2085
1969
1847
1779
1805
1921
2055
2127
2097
2015
1917
1853
1865
1951
2073
2160
2166
2112
1999
1911
1869
1893
1991
2121
2189
2176
2059
1905
1831
1823
1936
2041
2112
2106
2019
1893
1811
1789
1854
1959
2036
2047
1993
1899
1791
1757
1809
1940
2032
2036
1981
1873
1760
1687
1710
1825
1970
2074
2094
2021
1915
1817
1793
1866
1981
2069
2064
1984
1859
1744
1716
1790
1966
2176
2313
2403
2435
2395
2318
2256
2234
2212
2154
2027
1886
1766
1698
1706
1781
1941
2053
2055
1968
1859
1766
1728
1758
1863
1987
2064
2034
1924
1803
1727
1731
1814
1943
2057
2096
2034
1919
1827
1791
1840
1957
2038
2064
2018
1925
1839
1779
1807
1904
2022
2083
2047
1963
1859
1807
1807
1910
2026
2112
2114
2034
1941
1857
1840
1895
2006
2111
2128
2069
1971
1862
1798
1840
1975
2109
2170
2155
2081
1979
1916
1920
2009
2146
2224
2209
2133
2031
1981
1976
2040
2163
2271
2310
2266
2158
2023
1965
2002
2128
2256
2306
2281
2197
2096
2018
2027
2115
2227
2291
2281
2206
2115
2027
2000
2075
2191
2291
2335
2304
2209
2103
2030
2033
2098
2176
2199
2159
2076
1959
1871
1856
1954
2093
2175
2153
2038
1909
1810
1808
1891
2029
2135
2173
2121
2014
1903
1841
1856
1961
2080
2130
2111
2030
1932
1875
1863
1916
2016
2095
2097
2031
1919
1818
1791
1824
1919
2036
2128
2144
2075
1984
1923
1931
2021
2138
2178
2129
2042
1938
1867
1855
1929
2037
2123
2112
2047
1939
1854
1849
1936
2059
2164
2192
2127
2000
1893
1856
1926
2078
2199
2251
2223
2113
1983
1883
1871
1936
2035
2123
2126
2073
1978
1887
1873
1941
2060
2179
2198
2127
2000
1883
1831
1875
1998
2129
2199
2191
2121
2001
1907
1914
2011
2149
2221
2197
2127
1997
1887
1855
1930
2089
2227
2282
2225
2119
2019
1967
1967
2061
2172
2240
2240
2175
2065
1963
1920
1968
2058
2125
2143
2083
1951
1840
1819
1893
1993
2107
2130
2077
1968
1840
1798
1821
1923
2046
2111
2077
1973
1840
1773
1789
1909
2066
2179
2198
2127
2002
1889
1843
1882
1957
2013
2011
1953
1857
1763
1741
1827
2016
2240
2417
2526
2583
2559
2533
2489
2475
2445
2363
2233
2079
1936
1842
1834
1911
2035
2142
2166
2122
2029
1903
1813
1813
1904
2041
2115
2094
1974
1832
1743
1731
1806
1923
2017
2044
1968
1867
1808
1804
1851
1967
2061
2075
2041
1955
1855
1786
1795
1899
2013
2073
2035
1943
1825
1745
1755
1840
1967
2055
2071
1979
1868
1791
1759
1834
1982
2123
2165
2091
1970
1857
1797
1805
1902
2032
2127
2113
2009
1889
1808
1835
1974
2103
2187
2192
2127
2000
1885
1847
1899
2013
2143
2218
2192
2094
1984
1929
1943
2047
2189
2259
2237
2157
2061
1989
2002
2053
2119
2198
2213
2135
2017
1920
1873
1939
2079
2211
2259
2213
2091
1968
1907
1915
2003
2135
2215
2193
2077
1933
1840
1859
1947
2063
2155
2182
2128
2016
1919
1872
1911
2005
2096
2109
2042
1936
1821
1737
1733
1861
1997
2096
2112
2033
1914
1802
1778
1855
1968
2035
2047
1973
1888
1800
1776
1818
1926
2030
2047
2001
1908
1807
1769
1808
1936
2064
2128
2107
2005
1861
1750
1739
1829
1968
2075
2094
2042
1920
1808
1768
1814
1927
2033
2090
2039
1968
1867
1809
1835
1929
2032
2077
2039
1957
1855
1797
1808
1906
2030
2110
2093
2003
1903
1824
1814
1872
1974
2067
2081
2018
1919
1808
1757
1814
1959
2115
2192
2173
2074
1925
1822
1814
1904
2030
2118
2128
2081
1995
1914
1882
1921
2032
2131
2183
2177
2085
1981
1885
1875
1954
2054
2093
2063
1965
1847
1770
1787
1867
1950
1993
1994
1931
1826
1731
1711
1780
1908
1989
2007
1982
1891
1787
1735
1754
1853
1958
2030
2034
1950
1829
1735
1727
1808
1920
2002
1995
1928
1840
1742
1693
1718
1821
1919
1965
1952
1892
1889
1985
2186
2453
2704
2843
2832
2682
2442
2208
2055
2019
2085
2162
2177
2112
1974
1838
1770
1787
1862
1936
1955
1910
1815
1721
1691
1754
1873
1985
2047
2022
1923
1791
1687
1668
1741
1861
1947
1967
1902
1790
1698
1670
1719
1825
1963
2010
1985
1904
1808
1735
1712
1787
1905
1963
1932
1845
1761
1702
1701
1771
1879
1968
2004
1962
1859
1767
1723
1761
1875
2004
2067
2036
1920
1807
1745
1772
1872
2002
2086
2065
1980
1878
1818
1823
1899
1999
2094
2113
2087
2003
1911
1870
1939
2078
2175
2203
2167
2080
1954
1866
1879
1999
2150
2226
2224
2150
2031
1911
1857
1922
2071
2193
2255
2223
2127
2027
1970
1999
2112
2210
2227
2162
2054
1933
1860
1879
1962
2066
2135
2130
2064
1941
1845
1817
1879
1993
2083
2096
2022
1890
1782
1759
1842
1989
2112
2139
2064
1936
1799
1723
1727
1819
1935
2011
2023
1960
1872
1809
1824
1897
1984
2068
2093
2001
1889
1795
1776
1815
1926
2055
2106
2069
1968
1840
1749
1728
1854
1984
2070
2073
2000
1879
1762
1719
1787
1919
2035
2066
1987
1884
1757
1707
1749
1873
1995
2053
2004
1925
1837
1785
1796
1875
1981
2043
2034
1935
1827
1744
1746
1862
1987
2064
2039
1948
1815
1717
1695
1770
1909
2061
2131
2110
2000
1877
1779
1761
1858
1985
2059
2034
1968
1866
1808
1818
1899
1999
2080
2079
2002
1895
1792
1747
1798
1929
2061
2112
2080
2013
1941
1897
1904
1993
2119
2181
2161
2075
1942
1856
1840
1903
2011
2085
2074
1989
1870
1764
1710
1730
1835
1913
1957
1929
1855
1741
1658
1702
1815
1969
2087
2105
2026
1906
1777
1730
1797
1929
2034
2064
2003
1894
1783
1733
1762
1872
1965
2004
1959
1855
1735
1639
1613
1693
1812
1922
1999
2047
2089
2139
2275
2473
2655
2747
2703
2521
2241
1943
1747
1696
1758
1910
2023
2032
1949
1840
1760
1759
1845
1947
2000
1971
1905
1808
1728
1706
1775
1893
1983
1995
1927
1809
1698
1655
1702
1821
1925
1969
1936
1862
1775
1707
1699
1797
1901
1983
2000
1936
1819
1719
1699
1771
1901
1997
2021
1974
1885
1776
1713
1744
1851
1968
2027
2002
1923
1818
1764
1789
1914
2042
2130
2106
2010
1895
1792
1776
1856
1984
2109
2157
2099
1984
1889
1881
1939
2065
2170
2207
2159
2061
1934
1872
1904
2009
2157
2257
2271
2188
2066
1970
1942
2017
2157
2259
2293
2254
2165
2067
1998
2021
2113
2223
2272
2234
2140
2019
1951
1968
2077
2211
2294
2288
2203
2062
1925
1867
1911
2022
2127
2159
2113
2004
1887
1840
1885
1996
2115
2171
2159
2085
1942
1843
1835
1915
2017
2082
2073
2003
1904
1820
1801
1861
1971
2081
2107
2081
2013
1932
1855
1834
1905
2012
2065
2059
1986
1892
1799
1776
1873
2003
2096
2099
2017
1897
1803
1755
1806
1935
2064
2110
2061
1951
1825
1773
1818
1936
2057
2121
2096
1991
1866
1808
1836
1939
2080
2157
2149
2066
1946
1840
1806
1862
1985
2102
2126
2071
1954
1854
1810
1893
2020
2111
2115
2055
1959
1819
1743
1771
1889
2029
2111
2118
2047
1923
1840
1825
1913
2022
2097
2089
2031
1950
1852
1823
1866
1988
2126
2181
2163
2065
1951
1885
1890
1979
2106
2185
2192
2134
2029
1932
1886
1919
2047
2175
2195
2128
2013
1883
1805
1815
1919
2039
2096
2063
1966
1855
1767
1749
1810
1909
1983
1993
1933
1847
1776
1797
1899
2005
2096
2099
2041
1925
1807
1750
1782
1889
2004
2064
2035
1968
1884
1819
1808
1872
1947
1984
1946
1886
1781
1691
1671
1750
1904
2067
2204
2307
2384
2375
2321
2321
2370
2387
2315
2145
1920
1719
1606
1614
1743
1917
2027
2025
1949
1829
1728
1701
1759
1895
2006
2039
1983
1877
1792
1743
1767
1850
1967
2022
2000
1906
1792
1727
1745
1859
1984
2075
2063
1967
1840
1744
1716
1792
1921
2058
2106
2032
1897
1786
1734
1770
1863
1975
2057
2066
1999
1884
1777
1762
1855
1981
2035
1999
1923
1851
1783
1783
1870
2023
2150
2191
2160
2035
1913
1840
1856
1951
2068
2127
2109
2032
1953
1883
1895
2000
2136
2241
2251
2171
2036
1937
1919
1983
2103
2199
2231
2186
2089
1999
1971
2014
2100
2192
2241
2225
2122
1999
1904
1878
1965
2098
2183
2203
2182
2129
2054
1967
1935
1977
2046
2091
2066
2000
1899
1850
1885
1997
2125
2176
2147
2039
1931
1865
1859
1938
2042
2121
2135
2055
1915
1811
1794
1870
1995
2093
2103
2041
1936
1831
1783
1827
1946
2074
2128
2101
2017
1919
1831
1791
1834
1957
2029
2028
1978
1878
1792
1764
1839
1967
2067
2099
2056
1968
1876
1839
1869
1953
2074
2142
2120
2019
1904
1831
1833
1925
2071
2171
2179
2112
1993
1889
1844
1891
2017
2146
2190
2146
2034
1924
1858
1879
1994
2113
2145
2115
2059
1936
1863
1842
1921
2070
2175
2192
2129
2007
1895
1848
1909
2042
2175
2224
2171
2061
1936
1872
1897
1995
2112
2192
2182
2133
2038
1970
1950
2013
2128
2177
2165
2090
1984
1900
1887
1977
2112
2203
2227
2192
2113
2003
1951
1978
2091
2224
2293
2249
2111
1962
1857
1826
1898
2031
2129
2144
2087
1986
1904
1857
1907
2013
2119
2159
2096
1991
1872
1840
1904
2001
2125
2188
2189
2131
2031
1954
1964
2033
2128
2173
2141
2047
1921
1815
1774
1836
1950
2064
2108
2059
1961
1874
1872
1991
2239
2495
2700
2779
2729
2588
2418
2295
2240
2230
2231
2206
2162
2085
2011
2002
2059
2127
2191
2187
2130
2045
1923
1851
1862
1974
2117
2177
2157
2074
1979
1934
1934
1980
2054
2100
2093
2018
1911
1820
1807
1858
1980
2096
2154
2126
2012
1900
1820
1823
1926
2062
2139
2144
2068
1949
1863
1846
1921
2062
2159
2160
2092
1980
1882
1847
1872
1955
2034
2134
2160
2093
1974
1898
1917
2015
2125
2189
2177
2093
1967
1878
1889
1998
2122
2213
2251
2205
2107
1999
1970
2033
2122
2192
2217
2194
2128
2047
2003
2023
2119
2251
2335
2327
2258
2159
2063
2015
2055
2149
2239
2249
2192
2096
2013
1985
2035
2148
2229
2225
2157
2083
2011
1967
1963
2032
2143
2229
2240
2165
2035
1939
1927
1997
2129
2217
2224
2151
2041
1943
1898
1936
2025
2117
2141
2085
1968
1861
1808
1837
1915
2062
2151
2155
2065
1942
1837
1820
1907
2045
2142
2129
2032
1939
1863
1843
1902
2015
2129
2162
2103
1973
1843
1785
1808
1950
2089
2158
2143
2064
1949
1879
1874
1954
2065
2141
2144
2046
1891
1779
1753
1831
1991
2133
2190
2166
2058
1937
1857
1850
1919
2013
2063
2043
1987
1889
1796
1782
1877
2014
2118
2128
2071
1958
1856
1815
1858
1977
2083
2119
2080
1971
1856
1808
1823
1919
2064
2152
2167
2121
2022
1942
1916
1959
2090
2177
2193
2141
2023
1909
1866
1904
2031
2160
2215
2175
2068
1999
1980
2008
2110
2203
2244
2199
2079
1930
1812
1798
1872
2007
2103
2100
2015
1888
1793
1765
1839
1966
2066
2089
2032
1950
1852
1806
1825
1933
2042
2101
2096
2029
1920
1829
1788
1858
1962
2032
2023
1958
1861
1787
1771
1812
1917
2005
2030
1952
1829
1726
1729
1855
2116
2422
2681
2827
2838
2756
2619
2467
2356
2318
2309
2266
2210
2098
1984
1922
1942
2007
2069
2064
2002
1919
1834
1779
1776
1821
1926
2003
2022
1952
1827
1730
1728
1822
1968
2077
2102
2017
1884
1744
1685
1728
1858
1983
2025
1969
1883
1783
1731
1759
1861
1983
2053
2036
1943
1830
1751
1783
1881
1990
2073
2076
2017
1919
1853
1835
1856
1932
2026
2071
2043
1959
1863
1792
1793
1899
2034
2116
2119
2054
1950
1875
1864
1925
2042
2129
2136
2074
1977
1904
1875
1934
2037
2148
2214
2202
2121
2025
1998
2027
2107
2191
2256
2242
2144
2020
1936
1941
2031
2174
2271
2299
2261
2165
2058
1999
2030
2128
2202
2224
2197
2129
2027
1941
1936
2021
2150
2211
2167
2069
1950
1883
1891
1965
2085
2185
2209
2159
2039
1917
1840
1877
1983
2087
2117
2063
1949
1851
1793
1827
1900
2006
2090
2095
2034
1931
1840
1854
1946
2060
2111
2097
2010
1904
1793
1751
1797
1914
2025
2081
2062
1965
1872
1817
1837
1933
2042
2102
2090
1990
1874
1785
1776
1840
1979
2083
2086
2010
1891
1802
1789
1841
1979
2118
2175
2132
2014
1894
1817
1842
1936
2047
2119
2112
2032
1930
1840
1818
1872
1946
2019
2057
2014
1919
1822
1786
1855
2000
2130
2174
2135
2038
1926
1833
1819
1903
2021
2117
2125
2015
1891
1814
1823
1911
2029
2115
2123
2082
1995
1902
1856
1887
2021
2170
2227
2207
2115
1993
1907
1899
1974
2081
2149
2150
2083
1963
1853
1807
1858
1968
2032
2015
1939
1841
1757
1712
1760
1882
2007
2047
2014
1931
1826
1749
1758
1851
1974
2031
1994
1920
1812
1722
1709
1777
1915
2010
2039
1977
1872
1759
1705
1725
1821
1937
1999
1963
1846
1718
1646
1678
1839
2073
2288
2439
2519
2543
2557
2559
2559
2531
2427
2262
2093
1925
1798
1774
1837
1946
2047
2068
1998
1879
1774
1713
1734
1808
1904
1968
1965
1904
1777
1681
1655
1734
1871
1986
2032
1988
1872
1723
1643
1666
1776
1903
1987
1985
1910
1787
1698
1693
1782
1905
1986
1991
1917
1806
1712
1687
1766
1889
1968
1997
1977
1899
1821
1787
1828
1929
2027
2064
2010
1920
1797
1728
1744
1847
1984
2064
2047
1984
1901
1808
1797
1863
1957
2034
2063
2028
1951
1871
1843
1895
2023
2150
2206
2176
2087
1995
1936
1962
2064
2192
2259
2248
2171
2075
1982
1951
2000
2087
2170
2202
2173
2099
2011
1997
2009
2090
2193
2243
2201
2096
1958
1855
1846
1925
2095
2186
2149
2039
1921
1838
1833
1898
2000
2085
2095
2034
1952
1837
1795
1837
1937
2039
2095
2047
1949
1833
1763
1777
1876
1990
2047
2030
1975
1872
1765
1712
1776
1914
2006
2014
1937
1829
1743
1712
1757
1881
2000
2063
2025
1922
1802
1714
1718
1823
1969
2066
2075
1994
1856
1744
1712
1783
1920
2002
2015
1974
1877
1787
1766
1828
1952
2075
2109
2077
1974
1859
1787
1789
1870
1975
2036
2015
1965
1888
1838
1827
1891
1988
2093
2113
2054
1943
1837
1793
1828
1936
2033
2046
1984
1883
1779
1727
1776
1867
1982
2062
2059
1985
1884
1814
1827
1917
2054
2157
2165
2110
1981
1841
1776
1810
1936
2073
2133
2128
2057
1953
1881
1866
1936
2054
2115
2107
2031
1913
1817
1793
1855
1958
2029
2018
1947
1850
1756
1722
1776
1917
2053
2110
2047
1911
1795
1744
1775
1868
1984
2053
2037
1965
1847
1758
1712
1779
1904
2015
2054
2007
1919
1823
1787
1811
1904
1990
2016
1982
1857
1731
1643
1635
1739
1890
2029
2121
2178
2215
2247
2292
2384
2474
2501
2385
2128
1840
1626
1559
1623
1795
1953
2021
1998
1909
1818
1747
1751
1840
1964
2037
2029
1942
1829
1744
1717
1779
1898
1994
2005
1970
1895
1792
1744
1759
1866
1979
2029
1997
1904
1791
1712
1712
1811
1939
2021
2030
1960
1858
1771
1745
1804
1903
1984
1994
1946
1854
1761
1718
1763
1900
2034
2097
2046
1963
1863
1808
1812
1905
2010
2096
2094
2018
1902
1799
1771
1837
1984
2113
2140
2096
1975
1887
1857
1913
2027
2167
2213
2202
2128
2026
1949
1949
2038
2149
2197
2179
2098
1999
1921
1917
2001
2155
2250
2241
2167
2067
1961
1902
1921
2029
2138
2177
2139
2067
1989
1954
1973
2067
2171
2225
2192
2074
1934
1840
1811
1877
2030
2143
2170
2091
1961
1854
1806
1843
1953
2075
2115
2071
1968
1840
1759
1787
1877
2004
2085
2064
1974
1853
1744
1712
1780
1903
2017
2064
2031
1926
1801
1719
1744
1871
1998
2083
2080
2015
1889
1814
1798
1863
1971
2071
2083
1997
1872
1789
1794
1894
2033
2174
2193
2114
1986
1858
1782
1802
1906
2032
2087
2032
1982
1881
1830
1857
1940
2062
2125
2102
2025
1926
1819
1776
1850
1973
2073
2083
2032
1951
1866
1821
1857
1963
2094
2131
2106
2029
1931
1855
1851
1931
2064
2148
2148
2066
1954
1860
1838
1904
2025
2139
2170
2096
1968
1863
1822
1863
1968
2098
2169
2164
2096
1979
1905
1879
1937
2057
2128
2131
2080
1980
1905
1887
1945
2058
2147
2155
2068
1911
1759
1695
1764
1920
2032
2087
2039
1938
1824
1749
1775
1901
2047
2153
2160
2071
1941
1838
1791
1840
1959
2064
2094
2046
1954
1831
1765
1789
1872
1983
2042
2021
1924
1793
1709
1726
1822
1953
2061
2111
2130
2149
2167
2211
2302
2400
2436
2336
2155
1935
1751
1675
1717
1852
1971
2020
1985
1900
1794
1733
1744
1847
1974
2090
2117
2042
1908
1792
1744
1796
1903
1995
2042
2031
1923
1808
1767
1792
1904
2047
2139
2128
2029
1885
1776
1753
1828
1953
2046
2077
2012
1909
1827
1822
1889
2001
2108
2123
2032
1930
1789
1730
1776
1905
2045
2108
2086
1997
1902
1843
1854
1932
2042
2128
2143
2073
1969
1889
1872
1933
2038
2153
2192
2145
2067
1986
1951
1969
2031
2114
2164
2160
2096
2002
1959
1977
2099
2241
2321
2306
2215
2085
1979
1964
2047
2173
2274
2306
2246
2128
2001
1926
1943
2054
2181
2250
2237
2161
2057
1980
1989
2058
2146
2199
2184
2101
1979
1887
1867
1940
2064
2151
2158
2095
1984
1887
1843
1885
1982
2084
2129
2108
2029
1951
1890
1879
1942
2055
2114
2114
2071
1930
1815
1783
1840
1955
2086
2123
2080
1953
1813
1753
1806
1941
2094
2151
2113
2003
1885
1786
1747
1830
1970
2087
2121
2067
1975
1886
1858
1935
2057
2183
2222
2160
2028
1892
1817
1841
1936
2045
2119
2106
2018
1936
1860
1858
1911
2023
2103
2111
2037
1936
1854
1835
1899
2025
2133
2170
2127
2015
1879
1811
1838
1936
2068
2135
2126
2044
1951
1891
1872
1955
2096
2199
2223
2156
2029
1917
1884
1939
2059
2160
2199
2141
2026
1920
1877
1922
2035
2167
2242
2231
2149
2032
1937
1919
1983
2102
2193
2215
2155
2045
1921
1872
1933
2039
2135
2157
2102
1994
1880
1807
1847
1965
2081
2128
2077
1968
1863
1798
1814
1906
2046
2139
2145
2047
1919
1810
1776
1825
1936
2039
2083
2047
1959
1854
1799
1841
1968
2094
2117
2054
1933
1810
1750
1802
1983
2210
2384
2511
2535
2467
2368
2326
2337
2358
2325
2215
2075
1911
1816
1808
1878
2003
2145
2205
2161
2038
1903
1794
1787
1889
1997
2076
2071
2002
1899
1792
1750
1802
1936
2069
2123
2096
2013
1894
1824
1833
1917
2022
2058
2023
1941
1840
1765
1755
1841
1979
2066
2078
2019
1936
1863
1838
1918
2066
2176
2181
2083
1933
1804
1753
1799
1895
2021
2101
2111
2064
1966
1888
1885
1974
2121
2211
2230
2147
2031
1933
1904
1951
2069
2183
2220
2162
2067
1968
1926
1963
2079
2206
2271
2252
2166
2047
1983
1977
2059
2182
2269
2275
2193
2073
1970
1941
2023
2167
2275
2288
2215
2096
1975
1911
1936
2057
2182
2274
2261
2191
2078
1985
1955
2027
2139
2223
2225
2144
1987
1853
1819
1916
2078
2199
2215
2142
2042
1925
1868
1883
1978
2117
2201
2177
2069
1914
1808
1787
1872
2013
2131
2149
2083
1963
1840
1772
1807
1931
2064
2119
2086
1985
1874
1818
1856
1943
2057
2101
2079
1973
1846
1802
1828
1935
2082
2159
2145
2034
1901
1808
1777
1856
1983
2096
2135
2098
2015
1918
1845
1865
1969
2098
2176
2147
2058
1936
1867
1855
1920
2033
2122
2128
2077
1969
1893
1871
1927
2042
2144
2181
2130
2020
1879
1781
1783
1870
1957
2000
2000
1943
1873
1838
1843
1940
