2354
2352
2342
2304
2251
2211
2207
2224
2239
2223
2192
2151
2106
2079
2066
2079
2110
2121
2110
2094
2080
2069
2079
2102
2128
2157
2161
2158
2130
2094
2064
2064
2092
2121
2153
2176
2189
2179
2183
2215
2246
2256
2267
2273
2279
2259
2229
2210
2209
2229
2240
2225
2192
2142
2101
2078
2096
2124
2155
2171
2180
2169
2141
2126
2115
2113
2123
2126
2114
2091
2047
2001
1967
1963
1995
2031
2060
2079
2081
2083
2099
2147
2222
2270
2303
2318
2310
2274
2225
2183
2162
2160
2163
2161
2149
2147
2127
2118
2125
2143
2160
2155
2138
2115
2086
2058
2042
2063
2077
2080
2071
2064
2031
2011
2018
2046
2071
2096
2101
2095
2064
2019
2000
2011
2055
2106
2134
2128
2097
2060
2027
2023
2061
2102
2119
2112
2089
2067
2057
2060
2085
2123
2145
2163
2159
2137
2109
2094
2090
2112
2128
2131
2113
2074
2033
2003
2014
2056
2087
2102
2093
2065
2013
1963
1937
1958
1986
2023
2034
2027
2000
1968
1957
1973
2006
2042
2047
2037
2010
1985
1963
1955
1975
1993
2000
2011
2000
1969
1925
1903
1904
1891
1927
1939
1953
1966
1981
1999
2018
2038
2046
2054
2061
2043
2006
1989
1989
2002
2034
2064
2064
2029
1973
1917
1891
1901
1923
1947
1959
1955
1947
1933
1931
1954
1985
2012
2034
2037
2015
1979
1955
1947
1969
2000
2032
2053
2035
2011
2005
2020
2047
2082
2103
2091
2054
1995
1952
1927
1933
1947
1938
1933
1907
1868
1826
1808
1821
1854
1889
1906
1904
1893
1878
1872
1872
1873
1875
1887
1890
1873
1856
1832
1834
1861
1878
1879
1870
1858
1836
1805
1795
1821
1875
1927
1975
2000
1989
1963
1934
1919
1927
1931
1926
1901
1851
1817
1792
1783
1803
1842
1881
1891
1904
1914
1890
1868
1865
1885
1905
1913
1904
1890
1857
1829
1813
1835
1872
1899
1907
1919
1933
1942
1938
1915
1889
1855
1856
1872
1875
1869
1862
1889
1943
2013
2071
2110
2097
2047
2003
1995
1996
2006
2015
1991
1955
1920
1889
1887
1904
1927
1939
1936
1934
1920
1901
1917
1945
1985
2014
2032
2016
1983
1940
1895
1882
1904
1939
1964
1955
1922
1872
1839
1815
1835
1865
1899
1920
1924
1904
1873
1850
1853
1861
1866
1870
1856
1856
1840
1831
1813
1826
1855
1887
1917
1933
1929
1903
1872
1855
1854
1869
1888
1899
1885
1856
1830
1823
1826
1843
1849
1842
1840
1839
1853
1873
1901
1916
1914
1895
1865
1844
1830
1833
1871
1936
2001
2034
2028
1999
1968
1954
1958
1984
2001
2032
2036
2039
2029
2021
2057
2109
2156
2167
2153
2118
2086
2071
2075
2093
2121
2141
2139
2127
2112
2089
2069
2047
2039
2047
2047
2034
2023
2022
2014
2014
2030
2035
2069
2063
2034
2017
2011
2015
2039
2093
2128
2151
2154
2143
2106
2078
2071
2085
2112
2126
2127
2112
2074
2015
1976
1980
2018
2079
2122
2128
2112
2076
2047
2058
2095
2130
2162
2182
2178
2160
2141
2134
2139
2139
2115
2097
2076
2053
2031
2032
2054
2097
2135
2145
2127
2098
2064
2063
2083
2106
2123
2129
2112
2077
2026
1985
1975
1981
1993
1990
1974
1948
1919
1889
1879
1895
1936
1967
1982
1985
1969
1947
1934
1929
1951
1974
1987
1985
1981
1952
1935
1936
1949
1966
1969
1967
1942
1910
1887
1877
1904
1939
1987
2007
2021
2020
1989
1975
1994
2025
2055
2047
2038
2022
2003
1992
2014
2071
2119
2159
2176
2151
2097
2032
1989
2000
2033
2064
2068
2061
2045
2034
2037
2069
2111
2139
2173
2153
2097
2027
1979
1955
1963
1983
2019
2059
2067
2064
2043
2035
2036
2046
2073
2062
2045
2027
1975
1943
1949
1983
2022
2032
2027
2001
1975
1956
1958
1999
2033
2058
2054
2030
2001
1968
1951
1971
2016
2077
2112
2106
2068
1998
1936
1903
1894
1901
1899
1890
1878
1874
1900
1946
2000
2043
2039
1987
1921
1856
1824
1829
1873
1926
1963
1968
1955
1936
1919
1934
1969
1995
2005
2015
2011
1984
1935
1860
1830
1840
1872
1895
1878
1841
1797
1776
1805
1847
1882
1901
1907
1904
1903
1889
1899
1918
1936
1951
1950
1922
1883
1847
1830
1845
1878
1930
1965
1967
1937
1927
1891
1868
1870
1886
1899
1899
1883
1871
1856
1856
1875
1906
1951
1971
1975
1958
1931
1904
1901
1919
1943
1939
1927
1904
1885
1887
1918
1963
1987
2006
2022
2027
2006
1984
1973
1961
1966
1962
1956
1957
1962
1958
1940
1947
1968
1979
1981
1983
1981
1969
1972
1989
2013
2033
2055
2055
2038
2032
2038
2039
2065
2108
2142
2148
2141
2129
2113
2092
2074
2086
2118
2138
2139
2117
2097
2065
2042
2030
2019
2007
1999
1993
1989
1979
1969
2001
2062
2082
2082
2075
2065
2041
2032
2055
2107
2158
2201
2226
2235
2206
2169
2145
2159
2192
2219
2215
2176
2123
2080
2066
2064
2067
2056
2041
2011
2000
1971
1938
1937
1973
2015
2047
2062
2062
2029
1999
1989
2002
2032
2038
2019
1998
1969
1936
1930
1978
2047
2111
2145
2131
2098
2059
2023
2019
2025
2023
2011
1979
1936
1886
1847
1857
1899
1949
1990
2000
1984
1968
1952
1943
1953
1969
1993
2010
2016
1991
1951
1915
1908
1938
1994
2042
2064
2057
2023
1968
1951
1971
2017
2074
2110
2119
2103
2067
2035
2028
2042
2068
2081
2079
2058
2015
1990
1994
2009
2015
2013
2001
1981
1943
1911
1895
1893
1907
1940
1970
1968
1922
1877
1874
1893
1904
1915
1920
1920
1925
1920
1889
1863
1865
1898
1935
1966
1988
2014
2009
1998
2004
2032
2057
2066
2061
2032
1991
1968
1983
2007
2043
2075
2099
2110
2112
2096
2079
2064
2055
2059
2047
2032
2012
2002
2017
2043
2067
2064
2076
2096
2095
2059
2021
2007
1999
1997
1977
1951
1920
1887
1857
1851
1867
1910
1945
1950
1924
1892
1863
1850
1867
1901
1964
1948
1931
1904
1887
1884
1907
1955
2000
2047
2081
2078
2047
2015
1999
1988
1992
2005
2018
2010
1999
1999
2017
2058
2096
2146
2159
2152
2126
2083
2064
2064
2092
2116
2122
2103
2090
2064
2023
2011
2044
2094
2128
2143
2123
2097
2064
2044
2034
2018
2029
2021
2032
2023
2000
1991
2019
2075
2121
2128
2097
2041
1969
1913
1902
1927
1982
2032
2054
2030
1975
1922
1889
1890
1899
1936
1938
1927
1903
1877
1871
1889
1932
1985
2013
2018
2015
2000
1999
1992
2000
2032
2063
2064
2033
1995
1969
1971
1985
2005
2025
2032
2002
1963
1909
1874
1879
1918
1959
1983
1973
1941
1895
1851
1842
1872
1905
1939
1963
1973
1969
1946
1936
1939
1983
2002
2005
1987
1951
1898
1860
1856
1871
1879
1881
1858
1823
1779
1776
1793
1827
1851
1871
1872
1863
1831
1797
1786
1815
1871
1936
1954
1957
1936
1911
1898
1920
1960
1983
1974
1941
1910
1915
1919
1923
1951
1988
2013
2015
2017
2009
1993
1985
2000
2039
2081
2093
2076
2043
2001
1965
1952
1965
1969
1966
1954
1949
1935
1922
1920
1920
1937
1968
1981
1972
1961
1937
1943
1968
2003
2037
2059
2054
2032
1997
1981
2000
2041
2097
2135
2149
2125
2079
2029
2000
1991
2014
2047
2061
2029
1982
1937
1923
1951
2005
2055
2074
2083
2081
2046
2015
2013
2046
2087
2112
2114
2096
2064
2032
2027
2063
2105
2130
2141
2121
2086
2039
2027
2033
2064
2074
2103
2108
2085
2023
1981
1951
1971
2036
2118
2166
2177
2143
2085
2039
2047
2085
2112
2111
2099
2085
2065
2054
2054
2064
2090
2085
2053
2010
1965
1945
1957
1986
2013
2031
2023
1991
1936
1893
1869
1867
1875
1901
1903
1887
1857
1840
1837
1851
1874
1881
1899
1884
1869
1840
1821
1822
1848
1886
1923
1938
1936
1919
1890
1891
1904
1927
1937
1949
1939
1916
1893
1898
1925
1983
2023
2042
2026
1994
1974
1977
2011
2062
2107
2131
2133
2115
2096
2083
2091
2111
2134
2147
2128
2101
2055
1998
1962
1959
1984
2025
2046
2033
2018
1995
1983
1991
2030
2083
2121
2128
2111
2083
2062
2037
2027
2028
2031
2019
2013
1997
2007
2012
2057
2106
2128
2130
2110
2079
2039
2020
2014
2026
2065
2104
2119
2117
2107
2067
2068
2061
2113
2150
2150
2153
2131
2096
2066
2066
2097
2133
2166
2158
2130
2106
2096
2112
2146
2176
2204
2224
2229
2212
2170
2128
2098
2089
2077
2064
2047
2023
1995
1975
1981
2002
2032
2065
2075
2059
2055
2043
2061
2072
2081
2105
2131
2148
2146
2157
2177
2190
2189
2171
2147
2134
2134
2125
2112
2113
2128
2151
2165
2161
2145
2114
2095
2089
2096
2107
2089
2073
2031
1979
1936
1922
1950
1985
2015
2025
2000
1963
1926
1889
1897
1917
1936
1931
1909
1866
1831
1812
1819
1840
1873
1917
1941
1938
1929
1921
1930
1947
1978
2003
2030
2061
2063
2035
2010
1991
2016
2059
2071
2071
2071
2071
2059
2057
2080
2117
2128
2096
2047
2000
1963
1934
1926
1938
1955
1953
1966
1967
1971
1968
1973
1984
2001
2014
2015
2003
1985
1967
1961
1968
1975
1971
1958
1943
1923
1907
1920
1958
2013
2061
2073
2066
2026
1967
1918
1897
1901
1914
1915
1904
1888
1875
1859
1873
1908
1956
1985
1995
1991
1983
1984
1995
2017
2058
2076
2070
2056
2030
2011
2006
2043
2102
2154
2176
2177
2160
2128
2096
2090
2101
2108
2122
2134
2129
2103
2034
1968
1920
1913
1922
1930
1934
1936
1901
1886
1911
1968
2026
2064
2064
2034
1999
1972
1974
1998
2046
2082
2074
2032
1989
1954
1927
1927
1947
1979
1999
1995
1973
1942
1925
1937
1970
1979
1999
2002
1981
1951
1911
1901
1920
1970
2018
2037
2032
2010
1967
1936
1943
1983
2022
2043
2045
2030
1995
1970
1968
1968
1959
1939
1929
1924
1903
1856
1809
1831
1862
1911
1940
1951
1947
1921
1904
1909
1936
1987
2025
2031
1999
1970
1943
1946
1971
2000
2034
2067
2084
2071
2031
2015
2032
2064
2077
2067
2038
2013
1969
1947
1954
1986
2022
2047
2055
2034
2018
1994
1981
1989
2018
2047
2055
2033
2001
1980
1975
1975
1999
2039
2061
2029
1989
1939
1892
1873
1883
1920
1916
1920
1915
1885
1854
1861
1904
1974
2035
2086
2089
2047
1996
1966
1965
1967
1951
1941
1920
1889
1860
1854
1889
1947
1993
2015
2021
1986
1935
1885
1872
1904
1929
1957
1982
1983
1967
1938
1911
1901
1905
1928
1947
1951
1922
1930
1940
1980
2033
2083
2095
2074
2032
1970
1919
1902
1906
1935
1970
1983
1984
1968
1957
1948
1967
1977
1988
1987
1971
1950
1924
1917
1931
1954
1984
1985
1997
1999
1984
1983
2001
2033
2053
2046
2039
2031
2007
1999
1987
2007
2060
2096
2109
2094
2059
2011
1986
2001
2047
2096
2115
2130
2113
2081
2031
1999
1995
2009
2030
2033
2030
2021
1985
1969
1977
2007
2047
2066
2059
2032
2009
1984
1983
1999
2005
1998
1975
1939
1892
1840
1820
1841
1889
1927
1981
2001
1997
1960
1936
1945
1962
1963
1942
1913
1878
1856
1843
1868
1933
2007
2064
2085
2073
2044
2017
2000
2003
2023
2035
2046
2053
2041
2018
2001
2007
2031
2060
2075
2086
2058
2005
1971
1975
1990
2015
2028
2022
1991
1979
1967
1983
2031
2069
2085
2071
2026
1971
1929
1907
1933
1984
2041
2084
2097
2064
2005
1979
1987
2003
2026
2031
2014
1984
1968
1968
2002
2055
2110
2145
2163
2151
2100
2031
1994
1965
1968
1995
1995
1988
1984
1959
1957
1970
2000
2032
2055
2075
2081
2058
2032
2036
2066
2096
2118
2119
2101
2085
2063
2064
2095
2141
2164
2167
2159
2128
2077
2013
1963
1943
1937
1942
1946
1934
1904
1879
1889
1936
2007
2067
2075
2045
2018
1983
1963
1949
1936
1930
1911
1893
1872
1854
1840
1840
1858
1890
1920
1935
1933
1904
1859
1835
1837
1854
1887
1909
1910
1889
1858
1847
1857
1883
1905
1931
1919
1886
1837
1795
1797
1825
1867
1904
1931
1943
1934
1920
1922
1940
1965
1985
1997
2013
2019
2015
2013
2021
2021
2028
2002
1981
1947
1921
1907
1927
1958
1984
2002
1997
1979
1965
1954
1968
2006
2038
2061
2064
2043
1997
1933
1893
1899
1927
1957
1983
2000
2009
2000
1994
2000
2023
2060
2077
2079
2069
2032
1999
1980
1985
2013
2031
2035
2029
2009
1999
1987
1997
2027
2062
2067
2062
2006
1951
1904
1898
1922
1955
1982
1981
1954
1936
1923
1936
1955
2000
2042
2078
2090
2066
2027
2010
2015
2038
2065
2069
2053
2015
1977
1951
1943
1951
1961
1965
1968
1973
1963
1931
1917
1936
1963
1987
2000
1989
1963
1921
1907
1913
1940
1968
1973
1970
1951
1910
1882
1879
1903
1919
1913
1907
1892
1862
1857
1879
1922
1955
1970
1965
1949
1921
1883
1866
1880
1915
1952
1993
2011
2000
1971
1951
1968
2005
2037
2042
2047
2019
1981
1936
1936
1970
2013
2078
2117
2157
2173
2165
2157
2166
2192
2199
2181
2144
2080
2036
1999
1995
2016
2054
2096
2118
2112
2086
2041
2013
2019
2041
2061
2045
2031
2020
2004
2000
2007
2019
2021
2013
2002
2007
2018
2022
2033
2077
2127
2161
2169
2154
2114
2068
2041
2065
2096
2118
2123
2120
2113
2097
2090
2107
2153
2191
2199
2206
2203
2189
2159
2143
2158
2178
2195
2187
2147
2096
2057
2033
2035
2045
2079
2086
2079
2057
2011
1979
1959
1969
1985
1991
1982
1971
1974
1962
1969
1990
2017
2054
2067
2061
2032
2000
1981
1978
1984
1989
1983
1969
1943
1929
1939
1973
2011
2064
2096
2112
2095
2066
2021
1998
2003
2027
2055
2068
2064
2021
1968
1946
1954
1955
1984
1998
2009
1985
1945
1911
1911
1926
1943
1937
1924
1909
1871
1860
1874
1909
1961
2005
2035
2029
1989
1935
1895
1883
1895
1915
1915
1920
1920
1903
1891
1906
1936
1970
1982
1972
1959
1951
1940
1949
1975
2019
2064
2069
2032
1971
1921
1908
1937
1998
2064
2107
2127
2110
2078
2057
2047
2055
2080
2096
2093
2067
2029
1984
1950
1950
1967
1988
2000
1999
1983
1959
1942
1943
1964
1983
1987
1989
1968
1936
1905
1891
1904
1923
1930
1930
1921
1911
1915
1936
1968
2000
2015
1997
1970
1938
1918
1917
1947
2000
2047
2085
2093
2064
2006
1985
2002
2058
2112
2138
2128
2095
2032
1975
1943
1940
1955
1981
2000
2015
2010
1990
1978
1984
2005
2038
2067
2076
2055
2022
2000
1994
1991
2011
2032
2055
2058
2023
1995
1998
2035
2064
2109
2139
2162
2151
2114
2089
2090
2112
2135
2127
2106
2073
2042
2038
2076
2110
2130
2139
2134
2131
2126
2122
2134
2163
2205
2242
2265
2255
2220
2151
2111
2089
2094
2107
2114
2118
2115
2087
2063
2069
2121
2176
2203
2209
2183
2138
2076
2035
2037
2059
2075
2094
2098
2096
2081
2078
2089
2116
2130
2129
2118
2099
2080
2064
2079
2105
2137
2151
2139
2106
2071
2027
2009
2012
2031
2039
2042
2037
2017
1995
1999
2016
2047
2079
2081
2064
2043
2019
2018
2033
2054
2054
2026
1990
1969
1939
1919
1913
1931
1977
2003
2007
2001
1986
1958
1935
1923
1936
1968
1983
1973
1935
1883
1869
1900
1946
1995
2027
2039
2027
1986
1963
1987
2060
2128
2177
2192
2176
2129
2096
2075
2069
2074
2081
2079
2076
2064
2032
2021
2035
2086
2135
2185
2211
2192
2128
2064
2005
1983
1953
1933
1921
1919
1918
1899
1903
1943
2015
2089
2119
2128
2106
2077
2046
2023
2018
2025
2034
2030
2024
2010
1978
1939
1933
1959
1968
1973
1963
1949
1925
1920
1950
2007
2071
2105
2117
2099
2047
2010
2000
2018
2064
2097
2112
2102
2063
1998
1967
1974
2005
2047
2064
2055
2031
1991
1963
1951
1973
1999
2018
2017
2002
1971
1952
1963
1994
2029
2043
2038
2002
1953
1919
1918
1950
1991
2032
2070
2069
2021
1968
1930
1920
1941
1973
2000
2007
1993
1965
1955
1967
2003
2035
2055
2032
2000
1967
1934
1934
1954
1999
2015
2024
2010
1998
1995
1987
1996
1993
2015
2023
2026
2017
2013
2019
2054
2097
2148
2183
2192
2166
2123
2073
2030
2021
2035
2078
2096
2093
2064
2011
2000
2004
2032
2047
2037
2028
2000
1952
1904
1874
1875
1889
1897
1866
1824
1792
1744
1736
1773
1809
1839
1853
1843
1803
1759
1752
1788
1833
1906
1969
2027
2019
1972
1930
1904
1905
1915
1921
1924
1906
1876
1856
1866
1898
1922
1994
2016
2023
2005
1978
1939
1942
1979
2015
2018
2002
1968
1947
1939
1965
1987
2016
2023
2029
2006
1981
1961
1939
1930
1933
1953
1963
1958
1931
1898
1877
1891
1930
1981
2022
2032
2015
1973
1922
1909
1926
1968
2010
2039
2031
1985
1936
1911
1918
1932
1967
1988
1975
1947
1907
1907
1936
1979
2000
1997
1965
1920
1873
1830
1817
1831
1887
1958
2013
2027
2000
1958
1930
1924
1936
1967
1971
1968
1941
1906
1903
1923
1951
1965
1957
1936
1911
1898
1877
1877
1907
1946
1966
1970
1965
1931
1874
1825
1799
1811
1855
1902
1926
1926
1904
1889
1904
1938
1986
2029
2068
2096
2086
2034
1988
1983
2000
2013
2001
1982
1963
1954
1961
1972
1986
2011
2023
2025
2006
1984
1974
1990
2022
2055
2062
2065
2032
1989
1933
1908
1920
1943
1963
1971
1984
1995
2001
2022
2064
2112
2128
2114
2080
2031
1994
1973
1978
2001
2023
2032
2031
2015
1977
1951
1954
1969
1989
2035
2054
2061
2053
2041
2042
2044
2039
2044
2047
2037
2029
2001
2001
2033
2082
2110
2097
2060
1999
1945
1919
1906
1927
1963
1995
2007
1994
1950
1906
1899
1919
1968
2016
2037
2031
1995
1962
1951
1965
1989
2027
2036
2032
1993
1955
1914
1904
1914
1942
1984
2023
2041
2031
1990
1958
1959
1984
2017
2033
2037
2023
1995
1955
1943
1966
2007
2046
2064
2065
2062
2043
2024
2005
1995
1999
1995
1969
1936
1913
1925
1964
2009
2064
2096
2107
2088
2038
1990
1974
2005
2066
2123
2158
2167
2149
2118
2089
2078
2086
2106
2113
2101
2064
2029
2027
2069
2109
2133
2146
2127
2094
2047
2035
2066
2114
2161
2192
2206
2190
2173
2135
2096
2070
2064
2063
2064
2086
2101
2094
2091
2110
2133
2158
2165
2158
2118
2086
2063
2064
2078
2099
2105
2095
2064
2014
1986
1985
2015
2032
2062
2063
2035
1987
1936
1921
1944
1984
2015
2027
2002
1964
1927
1906
1925
1962
1991
2000
1984
1967
1937
1953
2001
2057
2074
2085
2094
2080
2064
2057
2046
2047
2067
2105
2131
2150
2155
2146
2143
2147
2165
2179
2186
2162
2113
2063
2025
2003
2011
2013
2022
2032
2035
2030
2021
2030
2057
2083
2107
2101
2080
2035
2016
1995
1993
2006
2035
2063
2064
2045
2017
1984
1959
1962
1977
2001
2011
2010
1989
1968
1968
2002
2068
2124
2155
2160
2140
2098
2077
2078
2094
2108
2096
2095
2085
2067
2057
2064
2086
2098
2101
2094
2071
2053
2032
2030
2041
2087
2097
2064
2005
1946
1893
1871
1882
1926
1978
2013
2032
2029
2019
2013
2029
2057
2071
2082
2083
2074
2060
2032
2021
2030
2047
2070
2081
2091
2078
2043
2021
2027
2046
2059
2058
2061
2055
2030
2017
2031
2065
2103
2123
2121
2100
2063
2011
1987
1983
1998
2021
2019
2006
2004
1999
1985
1999
2010
2030
2031
2032
2019
2002
1984
1995
2023
2038
2027
2000
1963
1920
1897
1894
1921
1967
1984
1999
2005
2000
1989
1975
1984
2010
2038
2061
2035
1989
1968
1951
1984
2055
2110
2142
2157
2143
2105
2069
2063
2085
2126
2137
2128
2077
2015
1956
1921
1909
1926
1947
1961
1962
1936
1910
1885
1887
1911
1958
1994
1987
1958
1917
1885
1872
1887
1922
1955
1977
1978
1950
1922
1911
1904
1904
1900
1889
1888
1890
1899
1889
1905
1929
1961
1984
1991
1982
1966
1943
1953
1995
2068
2128
2154
2129
2083
2035
2017
2033
2091
2129
2146
2127
2071
1993
1927
1894
1888
1917
1936
1949
1949
1936
1918
1904
1911
1947
1987
1986
1959
1918
1882
1878
1877
1888
1919
1953
1968
1950
1911
1872
1869
1918
1984
2037
2064
2042
2013
2000
2016
2041
2075
2093
2102
2110
2105
2096
2086
2090
2102
2099
2069
2022
1969
1923
1879
1855
1871
1890
1923
1939
1953
1963
1970
1993
2030
2075
2106
2112
2099
2064
2007
1970
1969
1993
2023
2047
2064
2038
2002
1990
2005
2046
2098
2128
2112
2083
2033
1986
1955
1951
1958
1963
1949
1926
1903
1869
1856
1866
1891
1936
1979
2001
2006
2013
2009
2010
2006
2043
2083
2086
2060
2000
1953
1922
1926
1947
1975
1977
1962
1936
1889
1849
1842
1853
1879
1910
1918
1907
1891
1895
1926
1977
2023
2058
2069
2064
2031
2003
1999
2029
2073
2102
2128
2128
2109
2034
1959
1906
1904
1931
1967
1971
1943
1905
1847
1822
1838
1883
1939
1987
2032
2043
2025
2023
2053
2086
2114
2129
2127
2103
2079
2045
2032
2039
2047
2047
2031
1997
1959
1922
1913
1918
1935
1939
1936
1922
1906
1897
1893
1904
1920
1937
1950
1967
1963
1947
1936
1949
1968
1989
2000
2003
2001
1993
1983
2007
2058
2108
2159
2182
2178
2135
2083
2030
1999
2015
2047
2078
2086
2067
2023
1993
1966
1965
1986
2000
2002
1990
1959
1918
1879
1886
1902
1907
1915
1911
1906
1898
1887
1904
1949
1997
2017
1999
1957
1907
1875
1881
1919
1968
1995
2002
1999
1994
2001
2035
2074
2095
2085
2045
2017
1999
1983
1980
1989
2015
2047
2063
2064
2061
2021
2011
2039
2096
2128
2144
2153
2135
2111
2073
2064
2077
2096
2112
2103
2081
2045
2012
2000
2014
2042
2066
2063
2025
1983
1934
1904
1899
1927
1930
1943
1953
1970
1981
1968
1957
1962
1984
1985
1984
1966
1936
1887
1862
1874
1934
2000
2063
2090
2081
2077
2062
2079
2112
2132
2123
2097
2059
2007
1963
1950
1953
1966
1968
1959
1951
1936
1904
1877
1872
1878
1895
1911
1922
1929
1933
1936
1945
1963
1999
2035
2053
2030
1990
1935
1919
1927
1952
1973
1967
1939
1912
1883
1860
1856
1885
1898
1937
1936
1914
1871
1859
1873
1921
1971
2022
2053
2040
2016
1967
1930
1931
1951
1975
1994
2003
2002
1971
1936
1931
1941
1967
1991
2000
1990
1959
1923
1925
1957
2003
2033
2038
2033
2021
2011
2016
2024
2042
2064
2065
2047
2011
1970
1961
1959
1995
2037
2069
2079
2065
2058
2044
2031
2028
2034
2047
2067
2068
2031
2001
1991
2002
2027
2073
2103
2109
2096
2070
2041
2038
2060
2079
2091
2096
2071
2010
1953
1929
1934
1961
1969
1968
1946
1922
1895
1872
1862
1878
1897
1899
1884
1853
1809
1791
1802
1840
1893
1935
1962
1962
1950
1923
1917
1921
1937
1968
2001
2021
2006
1986
1969
1985
2022
2064
2087
2098
2079
2032
1998
1997
2015
2046
2062
2055
2017
1996
1968
1975
2006
2059
2103
2137
2144
2121
2081
2055
2047
2085
2109
2114
2107
2075
2019
1989
1997
2035
2064
2080
2094
2097
2089
2058
2033
2037
2069
2096
2114
2112
2079
2026
2000
2025
2087
2128
2136
2117
2075
2015
1968
1947
1957
1989
2031
2043
2041
2007
1968
1946
1935
1937
1947
1939
1916
1869
1814
1813
1856
1907
1962
1995
2000
1975
1936
1904
1903
1937
1986
2013
2037
2046
2001
1958
1943
1968
2019
2077
2122
2156
2155
2113
2071
2064
2082
2115
2143
2154
2146
2112
2068
2060
2081
2099
2084
2060
2016
1967
1920
1920
1955
2000
2032
2055
2047
2027
1994
1968
1969
1995
2026
2059
2079
2064
2027
1999
2018
2057
2087
2106
2112
2095
2047
2000
1974
1975
1993
2023
2063
2094
2102
2082
2063
2035
2027
2027
2020
2013
1980
1926
1899
1899
1919
1951
1984
1999
2001
1987
1966
1958
1977
2013
2064
2096
2086
2045
1999
1967
1967
1993
2033
2081
2105
2106
2070
2017
1998
2003
2045
2087
2087
2038
1994
1934
1901
1905
1923
1941
1953
1947
1935
1915
1909
1933
1975
2015
2031
2032
2029
2010
1993
2003
2034
2045
2033
2010
1963
1911
1871
1872
1914
1975
2057
2108
2129
2126
2086
2032
2007
2007
2027
2037
2047
2047
2018
1985
1971
1978
2006
2041
2059
2039
1997
1939
1914
1909
1923
1948
1962
1963
1964
1923
1919
1958
2005
2061
2082
2074
2031
1987
1958
1949
1967
1981
1981
1973
1938
1885
1840
1840
1876
1933
1987
2007
2025
2021
2030
2070
2096
2101
2086
2033
1986
1945
1904
1872
1867
1887
1915
1933
1954
1974
1975
1952
1944
1940
1974
2007
2031
2041
2031
2010
2011
2039
2093
2129
2153
2157
2139
2103
2069
2059
2067
2074
2094
2095
2080
2044
2007
1989
2000
2003
2025
2013
1977
1933
1903
1919
1968
2031
2086
2117
2128
2107
2037
1984
1962
1978
2016
2065
2098
2102
2076
2037
2013
2016
2039
2083
2110
2125
2102
2061
2034
2041
2074
2107
2128
2129
2112
2057
1998
1977
2000
2053
2111
2139
2146
2120
2096
2071
2068
2081
2096
2096
2095
2067
2026
2005
2005
2030
2079
2106
2117
2103
2081
2058
2057
2083
2118
2146
2151
2134
2098
2060
2043
2063
2078
2079
2079
2080
2059
2021
1997
1999
2032
2087
2123
2125
2095
2046
2018
2020
2059
2106
2153
2173
2165
2129
2080
2069
2070
2079
2090
2081
2055
2007
1949
1907
1902
1926
1969
2015
2043
2055
2032
2006
2003
2039
2085
2123
2145
2135
2101
2045
2020
2029
2047
2082
2099
2098
2058
1997
1968
1972
2002
2061
2097
2114
2096
2053
2009
1991
2007
2032
2082
2096
2083
2029
1988
1966
1963
1979
1982
1982
1984
1984
1977
1984
1991
2012
2019
2007
1983
1951
1923
1897
1902
1936
1987
2031
2057
2041
2007
1941
1895
1878
1904
1921
1953
1986
1999
1989
1963
1956
1977
2005
2032
2029
1986
1946
1919
1919
1968
2010
2064
2083
2074
2035
1989
1965
1963
1972
1978
1971
1955
1936
1886
1843
1835
1863
1925
1973
2000
1995
1981
1968
1961
1967
1973
1975
1979
1968
1936
1872
1836
1834
1853
1885
1899
1890
1847
1790
1743
1731
1759
1783
1825
1845
1863
1861
1847
1846
1882
1933
1983
2011
2003
1968
1917
1873
1861
1872
1885
1891
1891
1863
1822
1797
1793
1819
1841
1849
1856
1863
1831
1810
1805
1828
1861
1888
1878
1847
1808
1759
1728
1735
1785
1820
1840
1834
1807
1775
1738
1734
1785
1857
1925
1958
1955
1934
1909
1909
1919
1935
1951
1954
1968
1972
1979
1978
1985
2017
2061
2079
2064
2022
1967
1917
1911
1945
1995
2046
2082
2081
2057
2013
1999
2013
2057
2087
2089
2055
1999
1936
1899
1884
1905
1931
1928
1904
1895
1899
1919
1958
2001
2038
2066
2057
2023
1979
1936
1921
1934
1961
2000
2032
2033
2018
1983
1971
1998
2041
2083
2110
2114
2095
2034
1980
1953
1943
1941
1954
1950
1925
1895
1854
1840
1856
1893
1936
1946
1942
1919
1895
1895
1913
1947
1971
1965
1923
1872
1844
1827
1850
1905
1955
1987
2000
1982
1941
1909
1904
1919
1937
1954
1961
1943
1903
1859
1855
1871
1887
1919
1949
1967
1967
1961
1942
1936
1955
1979
1984
1983
1978
1943
1931
1917
1904
1897
1887
1873
1872
1904
1939
1976
2010
2060
2079
2081
2070
2057
2027
2018
2032
2055
2062
2058
2032
1991
1948
1907
1881
1886
1885
1894
1897
1895
1878
1846
1809
1821
1863
1905
1925
1934
1947
1942
1939
1947
1964
1993
2022
2025
2001
1966
1922
1903
1919
1954
1995
2015
2011
1980
1937
1923
1949
1983
2030
2058
2035
1994
1951
1933
1953
1988
2034
2081
2103
2112
2097
2066
2035
2026
2025
2047
2073
2081
2086
2093
2097
2114
2147
2186
2215
2223
2195
2133
2061
2023
2032
2063
2091
2120
2132
2115
2101
2095
2096
2119
2145
2160
2148
2122
2081
2038
2027
2023
2055
2064
2075
2055
2027
2015
2023
2067
2116
2157
2160
2138
2098
2058
2032
2032
2052
2073
2080
2068
2034
1981
1937
1929
1941
1964
1978
1987
1983
1942
1913
1904
1921
1965
1984
1987
1971
1951
1931
1932
1975
2046
2106
2141
2160
2139
2098
2070
2079
2096
2122
2129
2123
2096
2046
2027
2032
2064
2083
2090
2081
2064
2039
1991
1967
1968
1985
2015
2043
2073
2082
2079
2083
2100
2127
2154
2146
2143
2126
2096
2074
2070
2090
2106
2113
2103
2078
2055
2032
2002
1999
2021
2047
2069
2086
2074
2047
2026
2009
2031
2030
2032
2022
2007
2000
2002
2035
2089
2143
2176
2175
2159
2141
2112
2108
2112
2127
2144
2155
2141
2122
2094
2070
2064
2085
2119
2120
2119
2096
2067
2055
2085
2134
2182
2206
2203
2183
2159
2114
2095
2091
2089
2071
2032
1987
1936
1899
1889
1918
1965
2018
2054
2059
2045
2031
2016
2018
2038
2077
2111
2113
2085
2032
1970
1939
1949
1983
2021
2055
2064
2033
2010
1984
1968
1973
1991
1985
1973
1930
1904
1883
1887
1918
1965
2013
2042
2062
2064
2036
2013
2000
2006
2009
1995
1989
1983
1973
1962
1947
1950
1968
1975
1975
1961
1931
1895
1871
1869
1860
1846
1837
1821
1791
1757
1744
1773
1815
1867
1910
1950
1969
1975
1993
2032
2082
2106
2112
2096
2059
1994
1938
1911
1905
1917
1936
1936
1933
1906
1897
1904
1942
1998
2054
2074
2075
2035
1979
1931
1911
1926
1968
2000
2000
1957
1913
1853
1815
1809
1838
1882
1908
1920
1905
1872
1850
1853
1866
1917
1953
1984
1986
1954
1905
1886
1899
1919
1935
1946
1951
1921
1921
1939
1982
2029
2071
2085
2073
2027
1968
1941
1955
1986
1998
1994
1966
1943
1926
1927
1957
2000
2044
2082
2086
2064
2029
1983
1961
1968
1983
2003
2021
2028
2004
1971
1954
1970
2006
2064
2093
2092
2073
2037
2021
2032
2087
2137
2178
2201
2192
2170
2151
2144
2154
2173
2187
2185
2151
2096
2034
2003
2017
2055
2061
2035
2003
1968
1945
1931
1957
2014
2075
2111
2119
2099
2065
2027
2011
2039
2082
2112
2108
2077
2024
1979
1955
1950
1965
1965
1963
1959
1947
1907
1877
1891
1943
2001
2047
2067
2047
2026
1991
1975
1987
2026
2044
2057
2047
2018
1980
1968
1991
2043
2099
2109
2079
2031
1985
1959
1959
1989
2025
2069
2109
2128
2115
2099
2096
2109
2137
2155
2161
2149
2128
2099
2085
2090
2109
2129
2140
2128
2095
2053
2042
2047
2046
2035
2025
2006
1982
1943
1924
1943
1989
2035
2089
2122
2146
2141
2107
2093
2096
2122
2147
2150
2134
2096
2045
2011
2005
2039
2073
2085
2089
2094
2098
2095
2094
2100
2113
2113
2101
2071
2026
1973
1936
1927
1951
1989
2025
2035
2011
1967
1935
1945
1983
2045
2091
2096
2064
1994
1933
1907
1941
2001
2059
2101
2117
2107
2074
2047
2054
2071
2096
2096
2077
2021
1961
1915
1905
1937
1978
1995
2007
2011
2000
1971
1959
1975
2007
2034
2045
2034
2007
1985
1988
2021
2079
2110
2118
2122
2112
2086
2064
2071
2119
2157
2181
2183
2166
2130
2098
2097
2138
2174
2202
2219
2229
2218
2167
2118
2103
2128
2161
2167
2154
2119
2044
1984
1959
1968
1983
2005
2031
2032
2006
1982
1991
2022
2041
2059
2060
2042
2023
1986
1978
1995
2034
2080
2086
2059
2007
1949
1902
1895
1914
1927
1946
1951
1923
1904
1895
1920
1953
1998
2025
2055
2054
2009
1943
1895
1873
1882
1899
1899
1889
1872
1855
1861
1887
1941
2001
2062
2086
2075
2022
1981
1964
1978
2013
2053
2082
2080
2034
1981
1943
1950
1988
2027
2055
2061
2031
1993
1962
1942
1951
1985
2017
2054
2069
2062
2033
2032
2046
2075
2086
2084
2054
2010
1968
1938
1939
1973
2003
2019
2034
2031
1997
1972
1978
1999
2022
2038
2030
1985
1918
1857
1834
1856
1910
1961
1988
1997
1969
1930
1920
1929
1951
1968
1987
1998
1973
1926
1934
1947
1984
2043
2083
2083
2036
1984
1925
1877
1870
1872
1879
1873
1872
1854
1838
1846
1870
1904
1955
1998
2032
2059
2059
2060
2064
2100
2143
2169
2155
2127
2089
2043
2015
2004
2015
2054
2070
2078
2064
2031
2009
2007
2039
2080
2087
2087
2064
2025
1994
1995
2022
2046
2074
2084
2067
2032
1991
1977
1991
2035
2066
2074
2068
2036
2004
1981
1985
1995
2003
2000
1984
1943
1904
1904
1943
2011
2067
2096
2101
2082
2037
1995
1981
2027
2086
2133
2147
2125
2076
2014
1937
1909
1929
1983
2046
2107
2119
2092
2064
2060
2071
2074
2087
2083
2071
2058
2031
2022
2032
2069
2092
2083
2047
1981
1919
1895
1914
1962
2022
2073
2086
2065
2029
1995
1994
2017
2032
2032
2003
1967
1936
1921
1941
1985
2047
2064
2065
2064
2037
1998
1968
1959
1978
2032
2094
2130
2134
2112
2089
2069
2063
2064
2057
2047
2011
1962
1908
1899
1929
1971
2015
2046
2065
2064
2035
2000
1996
2014
2035
2038
2036
2016
1973
1937
1922
1931
1951
1984
2010
2025
2007
1968
1959
1971
1984
2000
2007
2003
1993
1965
1942
1934
1942
1971
1990
2000
1984
1958
1965
1987
2053
2112
2146
2146
2119
2078
2027
2000
1995
2014
2032
2032
2019
2010
1967
1929
1919
1914
1913
1888
1862
1845
1820
1782
1755
1753
1776
1808
1837
1841
1837
1819
1827
1856
1910
1955
1984
1982
1941
1872
1815
1797
1823
1870
1898
1907
1904
1873
1849
1853
1885
1947
2005
2059
2080
2058
2005
1978
1995
2033
2084
2101
2096
2032
1967
1904
1885
1897
1922
1957
1979
1984
1975
1967
1968
1997
2010
2027
2020
2000
1950
1897
1861
1866
1894
1941
1985
2016
2015
1984
1940
1925
1937
1975
2000
2000
1969
1932
1899
1900
1918
1947
1951
1962
1962
1939
1922
1935
1968
2015
2044
2058
2038
2014
1974
1941
1942
1969
1999
2022
2031
2006
1957
1898
1871
1891
1923
1948
1947
1925
1879
1839
1833
1867
1920
1981
2007
1999
1953
1926
1914
1935
1975
2029
2079
2109
2100
2079
2055
2037
2038
2064
2106
2126
2112
2085
2055
2032
2059
2103
2128
2129
2112
2079
2042
2015
2015
2039
2071
2101
2123
2125
2107
2074
2073
2099
2142
2163
2162
2150
2113
2075
2059
2075
2112
2138
2147
2153
2145
2122
2097
2099
2108
2128
2150
2138
2101
2038
1984
1978
2006
2043
2077
2102
2123
2112
2064
2029
2021
2045
2074
2075
2055
2007
1959
1942
1955
1983
2015
2032
2033
2017
1984
1968
1984
2022
2067
2121
2157
2160
2145
2113
2095
2111
2145
2182
2201
2192
2144
2077
2036
2026
2015
2039
2064
2071
2062
2043
2029
2027
2058
2083
2087
2067
2031
1975
1957
1949
1965
1984
2003
2003
2002
1991
1968
1947
1951
1993
2054
2071
2069
2031
1989
1947
1931
1945
1979
2007
2023
2015
1986
1940
1906
1902
1931
1968
1984
1968
1936
1907
1901
1898
1909
1919
1934
1931
1902
1871
1843
1827
1840
1870
1903
1922
1920
1904
1904
1919
1959
2000
2028
2037
2034
2018
1986
1955
1951
1974
1978
1975
1941
1911
1869
1833
1817
1824
1830
1847
1851
1838
1813
1806
1808
1855
1920
1970
1974
1962
1911
1840
1793
1795
1845
1906
1948
1964
1979
1967
1953
1963
2003
2073
2107
2099
2064
2005
1950
1915
1905
1931
1975
2000
1985
1951
1910
1890
1910
1968
2025
2065
2078
2063
2031
1987
1970
1982
2000
2016
2011
1983
1922
1863
1840
1851
1889
1917
1933
1929
1927
1909
1887
1886
1911
1951
1969
1955
1904
1873
1853
1851
1874
1918
1968
2006
2031
2018
1997
1979
1978
2007
2012
2006
1991
1967
1931
1910
1926
1967
2013
2042
2046
2023
1994
1951
1934
1954
2001
2032
2059
2047
2013
1974
1952
1947
1974
2000
2032
2023
1994
1959
1952
1975
2014
2062
2079
2061
2017
1998
1971
1963
1978
2004
2044
2071
2070
2033
1988
1971
1984
2022
2069
2085
2065
2023
1981
1968
2002
2071
2127
2167
2195
2190
2151
2103
2065
2043
2038
2064
2078
2082
2061
2032
2009
2045
2093
2128
2143
2141
2105
2037
1969
1923
1904
1887
1877
1890
1885
1851
1808
1799
1840
1907
1969
1997
2000
1983
1951
1923
1911
1919
1949
1968
1975
1963
1937
1927
1938
1971
2018
2031
2021
1991
1950
1903
1881
1905
1957
2017
2082
2128
2167
2175
2167
2164
2175
2176
2159
2113
2046
1975
1931
1911
1919
1943
1977
2000
1985
1948
1889
1861
1878
1931
1983
2014
2019
1993
1955
1920
1922
1953
1979
2001
2032
2035
2030
2015
2005
2021
2039
2064
2078
2090
2071
2043
2023
2026
2047
2080
2096
2106
2096
2063
2044
2047
2071
2091
2102
2096
2073
2023
1987
1996
2033
2096
2167
2191
2192
2173
2131
2103
2091
2086
2093
2092
2078
2057
2004
1969
1957
1995
2065
2127
2157
2154
2142
2146
2178
2253
2308
2320
2316
2298
2253
2196
2161
2142
2137
2129
2112
2077
2018
1956
1921
1941
1993
2047
2103
2130
2139
2125
2103
2085
2073
2061
2064
2042
2017
1967
1902
1871
1879
1915
1961
2000
2025
2032
2027
2023
2039
2090
2135
2170
2178
2142
2083
2029
2019
2041
2067
2083
2081
2074
2060
2028
2019
2047
2095
2128
2143
2148
2147
2142
2127
2128
2151
2176
2177
2155
2110
2047
2000
1987
2015
2057
2089
2102
2096
2061
2031
2039
2064
2079
2090
2079
2047
2006
1966
1951
1961
1985
2019
2035
2046
2026
1984
1951
1943
1965
1971
1969
1936
1895
1839
1781
1756
1771
1814
1863
1894
1913
1917
1903
1883
1882
1906
1919
1918
1916
1903
1882
1874
1899
1945
2000
2063
2085
2067
2031
1959
1905
1888
1904
1948
2000
2047
2069
2066
2041
2038
2047
2057
2039
2011
1973
1934
1911
1926
1963
2000
2019
2006
1982
1949
1911
1898
1913
1938
1958
1961
1936
1910
1904
1919
1932
1968
1999
2023
2046
2054
2042
2005
1995
2023
2070
2078
2071
2029
1974
1935
1920
1941
1982
1991
1988
1969
1937
1889
1846
1834
1854
1903
1941
1967
1949
1894
1848
1835
1872
1951
2000
2046
2059
2027
1966
1919
1900
1920
1961
1984
1991
1973
1947
1941
1952
1975
2014
2039
2064
2066
2070
2037
2017
2031
2070
2118
2136
2130
2091
2037
2000
1986
1999
2011
2022
2023
2003
1981
1971
1974
1990
2019
2039
2066
2066
2031
1994
1965
1955
1963
1975
1972
1959
1935
1899
1872
1873
1897
1909
1903
1886
1827
1776
1735
1743
1791
1855
1907
1936
1943
1922
1901
1906
1933
1967
1993
2000
1989
1956
1921
1902
1907
1943
1982
1981
1960
1914
1867
1841
1847
1872
1917
1965
1991
1991
1962
1920
1891
1893
1907
1945
1983
2000
1986
1946
1925
1938
1989
2047
2077
2086
2071
2025
1968
1924
1906
1906
1915
1909
1903
1875
1866
1879
1927
1983
2021
2035
2033
2014
1970
1947
1949
1989
2028
2055
2069
2062
2023
1983
1968
2004
2046
2098
2135
2153
2133
2115
2127
2177
2240
2272
2258
2223
2167
2128
2107
2119
2165
2206
2210
2192
2171
2135
2099
2096
2112
2134
2158
2173
2176
2160
2130
2118
2128
2157
2182
2192
2182
2149
2108
2077
2069
2101
2134
2167
2179
2148
2091
2033
2027
2065
2109
2128
2124
2096
2043
1990
1965
1968
1999
2065
2119
2135
2103
2057
2031
2058
2103
2148
2159
2139
2100
2057
2003
1983
1979
1991
2019
2055
2064
2032
1977
1941
1951
1985
2034
2067
2079
2035
2014
1991
2001
2043
2096
2127
2131
2107
2043
1993
1998
2032
2075
2101
2123
2112
2079
2035
2023
2055
2107
2143
2154
2138
2106
2074
2054
2061
2071
2083
2111
2123
2127
2102
2064
2063
2095
2145
2182
2198
2191
2160
2101
2060
2045
2054
2073
2075
2055
2014
1975
1959
1961
1985
2026
2047
2043
2014
1968
1935
1930
1963
1993
1993
1955
1903
1834
1759
1725
1728
1766
1810
1851
1870
1869
1861
1857
1878
1924
1965
1977
1969
1922
1871
1843
1843
1863
1891
1909
1917
1890
1862
1865
1871
1913
1973
2032
2053
2034
1993
1936
1887
1874
1904
1949
1971
1983
1969
1951
1915
1904
1920
1936
1947
1949
1937
1906
1855
1827
1845
1879
1909
1907
1891
1859
1815
1805
1829
1877
1925
1959
1989
1989
1967
1942
1947
1983
2021
2058
2061
2043
2000
1959
1947
1958
2001
2069
2109
2118
2106
2075
2043
2026
2033
2055
2060
2055
2017
1955
1904
1899
1935
1968
1985
1993
1984
1966
1936
1913
1909
1932
1922
1923
1919
1893
1872
1867
1891
1923
1954
1977
1975
1966
1947
1927
1929
1951
1999
2042
2062
2027
1979
1937
1926
1931
1962
1972
1947
1923
1911
1897
1909
1935
1975
2004
2027
2033
2021
1995
1970
1968
1999
2045
2094
2112
2112
2087
2057
2031
2022
2037
2060
2047
2021
1978
1923
1903
1930
1989
2023
2039
2032
1991
1936
1904
1923
1963
1982
1982
1955
1914
1872
1837
1824
1841
1887
1942
1974
1974
1953
1936
1931
1941
1970
2004
2026
2030
2016
1993
1969
1953
1933
1913
1909
1895
1859
1805
1769
1737
1733
1759
1801
1829
1841
1836
1808
1787
1799
1840
1855
1879
1885
1876
1853
1823
1814
1813
1809
1805
1793
1782
1754
1732
1719
1709
1745
1785
1811
1827
1819
1808
1802
1810
1840
1859
1863
1843
1835
1824
1830
1841
1872
1910
1951
1979
2000
2019
2015
2020
2021
2023
2017
1999
1968
1923
1877
1842
1840
1862
1890
1936
1970
1984
1967
1937
1936
1983
2029
2064
2064
2032
1994
1974
1986
2016
2073
2103
2118
2115
2098
2063
2021
2010
2032
2067
2096
2098
2073
2027
1989
1973
1983
1996
2007
2014
2019
2011
1998
1984
1981
1984
1991
1986
1968
1922
1862
1827
1846
1906
1967
1996
1997
1975
1935
1916
1927
1954
1982
1989
1983
1959
1919
1875
1860
1869
1904
1958
1987
1991
1973
1958
1947
1946
1971
2004
2026
2032
2029
2015
1991
1984
1988
1971
1942
1922
1904
1890
1869
1859
1883
1924
1957
1970
1966
1931
1885
1845
1821
1827
1874
1937
1999
2023
2001
1973
1978
2007
2053
2090
2091
2070
2032
1993
1959
1957
1983
2003
2022
2032
2030
2000
1985
1999
2019
2036
2033
2031
2043
2039
2035
2043
2065
2112
2140
2145
2128
2096
2064
2039
2044
2060
2080
2059
2046
2041
2032
2033
2043
2069
2108
2145
2175
2176
2160
2148
2147
2160
2176
2179
2155
2123
2096
2064
2032
2010
2000
2029
2065
2094
2090
2070
2061
2071
2097
2119
2133
2128
2116
2102
2070
2047
2064
2096
2128
2150
2161
2163
2159
2175
2205
2241
2277
2298
2294
2263
2211
2170
2133
2115
2114
2118
2107
2077
2033
2005
2019
2067
2128
2176
2205
2211
2181
2129
2073
2022
2001
2005
2014
2019
2022
2006
1984
1985
2013
2063
2110
2143
2147
2128
2096
2082
2085
2090
2082
2038
1995
1955
1932
1935
1962
1996
2026
2047
2064
2067
2033
1998
1968
1958
1963
1974
1987
1987
1974
1946
1939
1946
1950
1946
1927
1905
1877
1858
1863
1897
1934
1946
1945
1931
1911
1893
1890
1901
1915
1937
1956
1967
1959
1954
1930
1937
1975
2027
2085
2112
2112
2080
2015
1967
1963
1973
1996
1989
1983
1938
1907
1893
1904
1930
1957
1977
1969
1942
1906
1856
1838
1841
1872
1887
1887
1885
1872
1866
1871
1894
1936
1979
2026
2047
2033
2009
1990
1991
1995
2013
2019
2032
2018
2000
1970
1972
1984
2000
2023
2059
2082
2082
2071
2064
2077
2106
2142
2153
2146
2118
2079
2062
2045
2041
2055
2074
2087
2077
2063
2064
2043
2038
2032
2030
2018
2007
1999
1991
2017
2070
2117
2155
2167
2161
2118
2061
2011
1990
2001
2015
2032
2021
1972
1927
1890
1879
1889
1919
1959
1991
2000
1978
1957
1954
1977
2017
2066
2081
2087
2067
2043
2047
2069
2096
2112
2114
2109
2097
2059
1999
1965
1952
1968
1983
1991
1987
1957
1904
1867
1859
1885
1907
1913
1904
1897
1904
1923
1964
2019
2068
2095
2095
2083
2065
2043
2059
2089
2128
2175
2202
2217
2205
2176
2141
2155
2198
2234
2233
2194
2138
2065
2000
1982
2014
2061
2096
2119
2127
2120
2095
2062
2043
2056
2062
2061
2066
2061
2047
2065
2110
2158
2194
2197
2169
2113
2067
2041
2064
2112
2157
2183
2173
2134
2069
1990
1932
1919
1927
1974
1993
2000
2003
2000
2002
2021
2047
2071
2075
2073
2045
2017
1993
2003
2037
2074
2089
2096
2082
2059
2026
2009
2001
2023
2063
2077
2065
2035
2007
2010
2015
2034
2059
2075
2077
2062
2026
2005
1997
2001
2020
2030
2041
2038
2015
1947
1910
1931
1966
2022
2054
2064
2062
2025
1997
1981
1987
2001
2011
1998
1953
1921
1872
1847
1841
1863
1911
1937
1933
1882
1820
1788
1801
1856
1905
1967
2001
2032
2030
2021
2021
2028
2037
2056
2033
1999
1955
1904
1890
1921
1961
2002
2010
2007
1985
1956
1927
1933
1963
1994
2012
2019
2031
2023
1998
1979
1982
1985
1999
2002
2019
2002
1984
1965
1968
1993
2013
2012
1987
1959
1922
1895
1906
1957
2027
2086
2112
2099
2065
2045
2061
2093
2117
2116
2112
2075
2030
1981
1956
1968
1980
1995
2001
2000
1979
1949
1926
1924
1952
1971
1983
1987
1991
1975
1953
1947
1972
2007
2034
2037
2020
1971
1912
1877
1890
1933
1938
1930
1905
1859
1808
1786
1812
1863
1920
1945
1939
1899
1821
1747
1715
1729
1772
1809
1841
1856
1840
1835
1853
1897
1943
1998
2014
2003
1969
1921
1883
1895
1943
2003
2035
2033
1995
1938
1901
1899
1923
1968
1998
2023
2029
2027
1995
1967
1947
1949
1968
1979
1971
1955
1937
1936
1953
1983
2007
2021
2022
2010
1981
1950
1939
1953
1968
1994
2011
2000
1975
1958
1958
1984
2030
2058
2058
2031
2007
1984
1986
2031
2101
2154
2176
2176
2143
2095
2025
1978
1971
1971
1995
2023
2047
2058
2057
2077
2109
2142
2176
2192
2189
2153
2096
2063
2064
2101
2145
2161
2146
2096
2044
2007
2021
2064
2111
2133
2131
2108
2081
2036
2037
2061
2074
2085
2089
2081
2063
2039
2029
2032
2074
2109
2106
2073
2003
1947
1923
1933
1981
2043
2091
2111
2096
2043
1983
1949
1943
1956
1994
2023
2033
2015
1987
1984
2015
2063
2093
2102
2107
2100
2078
2042
2031
2021
2032
2026
2034
2019
2003
1983
1971
1969
1978
1980
1970
1965
1950
1926
1911
1923
1949
1998
2038
2062
2047
2011
1975
1970
1981
1997
2017
2031
2002
1955
1907
1895
1906
1951
2009
2046
2076
2074
2039
2003
1997
2007
2032
2042
2046
2013
1979
1936
1932
1950
1968
1990
2003
1995
1962
1930
1934
1967
2000
2023
2027
2015
1984
1943
1917
1904
1915
1939
1953
1953
1935
1888
1847
1854
1902
1970
2014
2045
2053
2034
1998
1962
1951
1968
1991
2009
2018
2005
1961
1937
1956
1987
2028
2064
2063
2029
1986
1968
1982
2017
2059
2090
2111
2107
2090
2069
2058
2064
2094
2114
2112
2094
2058
2003
1973
1965
2000
2032
2032
2009
1984
1921
1882
1857
1857
1877
1919
1954
1966
1961
1936
1907
1903
1926
1947
1965
1968
1936
1919
1907
1930
1977
2020
2058
2068
2045
2006
1958
1921
1927
1962
1978
1965
1935
1906
1902
1931
1973
2029
2074
2065
2028
1987
1965
1938
1954
1980
2014
2037
2058
2029
1978
1925
1905
1920
1947
1979
1984
1975
1943
1911
1882
1878
1904
1936
1946
1936
1904
1872
1869
1883
1926
1970
1984
1975
1954
1917
1867
1863
1890
1946
1997
2020
2003
1967
1925
1911
1938
2000
2047
2096
2112
2112
2081
2034
2022
2031
2047
2064
2078
2064
2031
1954
1907
1913
1936
1975
2005
2023
2027
2006
1995
2005
2036
2059
2064
2063
2043
2009
2001
2018
2047
2083
2096
2074
2033
1991
1952
1938
1953
1979
2018
2039
2032
1989
1943
1929
1936
1975
2021
2055
2061
2031
1977
1949
1947
1969
2006
2032
2022
1993
1955
1923
1907
1909
1920
1930
1906
1866
1831
1791
1790
1831
1893
1939
1955
1942
1933
1875
1839
1835
1858
1929
1968
1997
2007
1981
1936
1903
1904
1936
1958
1954
1930
1902
1876
1856
1856
1865
1890
1914
1939
1936
1904
1863
1851
1867
1883
1897
1889
1846
1791
1749
1769
1839
1924
1991
2025
2027
2001
1965
1939
1936
1960
1998
2009
2011
1990
1955
1923
1909
1926
1942
1983
1987
1977
1953
1917
1919
1952
2003
2033
2035
2023
1989
1946
1923
1910
1908
1898
1901
1898
1899
1885
1887
1919
1984
2061
2113
2145
2119
2055
1971
1923
1921
1950
1979
1998
1994
1997
2001
2019
2037
2054
2055
2035
2017
1990
1937
1903
1891
1905
1923
1951
1973
1991
1965
1922
1917
1966
2013
2043
2061
2064
2039
1995
1973
1972
2001
2047
2097
2133
2128
2091
2033
2029
2059
2096
2137
2160
2137
2090
2003
1926
1903
1909
1924
1926
1927
1920
1899
1879
1901
1937
1978
1987
1978
1943
1898
1863
1872
1920
1981
2032
2057
2031
2000
1963
1949
1967
1995
2051
2082
2102
2103
2090
2063
2032
2030
2036
2035
2034
2015
1979
1937
1935
1965
2026
2093
2144
2175
2181
2171
2166
2201
2241
2265
2268
2242
2182
2114
2070
2064
2089
2111
2121
2119
2107
2079
2055
2055
2086
2129
2165
2181
2171
2134
2107
2118
2151
2203
2257
2288
2271
2224
2167
2123
2111
2135
2190
2239
2265
2251
2224
2195
2192
2215
2251
2283
2293
2278
2223
2148
2098
2082
2091
2114
2128
2127
2103
2067
2043
2056
2070
2087
2086
2065
2021
1975
1944
1953
1983
2023
2059
2064
2035
1990
1941
1933
1965
2021
2064
2084
2080
2078
2055
2046
2075
2121
2167
2203
2206
2173
2115
2067
2043
2047
2077
2095
2098
2083
2064
2032
2014
2004
2027
2059
2064
2064
2053
2023
2007
2016
2057
2127
2176
2203
2199
2174
2134
2128
2149
2190
2235
2243
2223
2177
2111
2038
2003
2017
2034
2037
2028
2001
1968
1953
1965
1985
2015
2046
2057
2029
1984
1937
1941
1985
2045
2096
2106
2079
2026
1954
1917
1904
1931
1970
1970
1953
1919
1881
1869
1886
1925
1985
2032
2047
2030
1995
1960
1949
1965
1985
2000
1985
1956
1919
1884
1891
1933
1975
2003
2006
1995
1979
1953
1936
1940
1966
2001
2015
2013
1985
1947
1914
1914
1966
2035
2107
2149
2160
2149
2125
2099
2087
2091
2081
2065
2054
2033
2013
2000
2001
2039
2094
2128
2138
2118
2069
2016
1994
2015
2064
2096
2107
2102
2082
2030
2000
2002
2029
2059
2064
2064
2042
2014
1991
1987
1998
2018
2032
2027
1984
1915
1840
1808
1831
1892
1949
1965
1954
1918
1870
1853
1854
1877
1905
1921
1937
1965
1966
1943
1929
1934
1953
1975
1994
2001
1963
1914
1895
1927
1968
2005
2023
2009
1971
1909
1872
1885
1915
1941
1966
1983
1979
1950
1936
1955
1986
2016
2039
2040
2016
1982
1941
1920
1921
1953
1985
1993
1993
1971
1951
1936
1947
1989
2036
2080
2093
2064
2005
1954
1922
1919
1926
1937
1942
1919
1882
1847
1840
1872
1901
1911
1917
1915
1920
1911
1895
1901
1936
1999
2045
2064
2047
2022
1979
1951
1946
1966
2000
2023
2005
1949
1891
1870
1882
1914
1963
1983
1968
1962
1949
1936
1941
1958
1977
1971
1938
1899
1843
1815
1840
1900
1936
1965
1963
1927
1879
1817
1787
1797
1835
1891
1929
1937
1922
1904
1897
1917
1943
1961
1958
1936
1894
1834
1788
1778
1825
1882
1923
1943
1942
1910
1873
1856
1868
1883
1909
1925
1921
1893
1872
1847
1857
1875
1898
1902
1897
1872
1825
1776
1751
1765
1803
1855
1891
1919
1915
1917
1935
1981
2023
2074
2096
2112
2096
2055
2023
2023
2053
2081
2096
2101
2087
2030
1971
1937
1949
1983
2015
2043
2061
2056
2017
2018
2041
2083
2112
2126
2112
2074
2017
1986
1987
2015
2070
2090
2093
2071
2021
1963
1947
1969
1999
2032
2047
2047
2023
1980
1952
1968
2037
2111
2151
2145
2113
2066
2036
2046
2081
2106
2102
2079
2056
2007
1985
1997
1998
2032
2055
2038
2015
1984
1949
1942
1951
1999
2027
2037
2031
2000
1958
1939
1971
2034
2099
2142
2182
2193
2174
2128
2101
2111
2123
2118
2122
2117
2107
2071
2062
2066
2095
2129
2159
2165
2144
2111
2074
2057
2073
2106
2120
2135
2128
2090
2032
2000
1998
2021
2046
2075
2077
2055
2003
1966
1957
1979
2005
2000
1981
1936
1878
1853
1846
1872
1903
1924
1936
1920
1885
1855
1861
1879
1951
1983
1985
1963
1936
1922
1933
1981
2024
2046
2037
2019
1991
1981
1969
1998
2059
2102
2128
2139
2105
2032
1963
1926
1925
1938
1958
1973
1969
1955
1903
1866
1871
1904
1951
1984
1995
1981
1955
1950
1959
1972
1977
1984
1991
1963
1914
1879
1891
1949
2003
2046
2057
2035
1987
1925
1898
1904
1935
1963
1958
1946
1897
1840
1814
1827
1866
1909
1936
1953
1938
1904
1857
1861
1915
1969
2002
2014
1997
1959
1907
1890
1904
1949
1987
2006
2017
2002
1973
1968
1986
2002
2043
2061
2062
2032
2000
1970
1973
1995
2029
2064
2071
2037
1996
1958
1959
1997
2032
2070
2085
2096
2087
2065
2045
2046
2069
2097
2106
2109
2097
2053
2014
1999
2000
2023
2047
2063
2058
2027
1982
1954
1943
1947
1967
2000
2011
2009
1990
1968
1990
2039
2079
2096
2096
2081
2023
1962
1918
1914
1936
1968
1982
1981
1965
1945
1954
1975
2005
2034
2063
2080
2076
2039
2016
2019
2059
2084
2099
2116
2112
2087
2063
2065
2086
2117
2138
2122
2077
2025
1993
1983
1991
2006
1999
1989
1974
1947
1936
1950
2000
2064
2101
2115
2103
2064
2007
1968
1969
2003
2062
2114
2128
2113
2071
2029
2003
2027
2071
2112
2139
2135
2106
2063
2017
2011
2034
2067
2106
2122
2103
2069
2032
2017
2041
2089
2128
2153
2147
2123
2110
2100
2118
2143
2162
2160
2145
2096
2031
1985
1983
2017
2064
2091
2090
2055
2015
1983
1978
1998
2032
2081
2113
2123
2101
2062
2031
2026
2032
2058
2081
2094
2059
2010
1978
1987
2018
2064
2103
2125
2113
2091
2058
2047
2066
2064
2075
2059
2042
1990
1935
1907
1921
1967
2019
2077
2097
2077
2035
2002
1989
2005
2041
2057
2069
2069
2042
1996
1968
1980
2017
2064
2093
2096
2082
2057
2020
2000
2015
2041
2063
2055
2046
2035
2017
2029
2079
2128
2160
2160
2141
2096
2034
2003
2015
2056
2098
2122
2113
2066
2011
1963
1938
1951
1983
1999
2000
1986
1935
1909
1902
1920
1951
1985
2010
2012
1994
1953
1936
1942
1959
1971
1969
1952
1911
1867
1841
1846
1903
1947
1981
1999
1982
1934
1887
1862
1873
1903
1920
1934
1939
1936
1934
1939
1967
2014
2071
2094
2094
2061
2022
1995
1985
1983
1985
1990
1984
1969
1953
1943
1968
1997
2005
2015
2033
2031
2007
1984
1973
1978
2013
2059
2096
2113
2113
2087
2067
2081
2128
2178
2179
2141
2087
2022
1978
1971
2014
2075
2123
2142
2123
2065
2019
2000
2000
2001
2007
2006
2001
1986
1951
1935
1951
1995
2039
2064
2065
2021
1972
1938
1938
1968
2009
2038
2047
2031
1996
1942
1926
1946
2002
2062
2091
2099
2080
2038
2007
2005
2027
2064
2083
2096
2087
2039
2006
2000
2023
2032
2047
2041
2011
1973
1922
1901
1925
1973
2009
2009
1991
1978
1956
1965
2000
2065
2112
2126
2112
2065
2002
1951
1926
1938
1965
1990
2000
1993
1957
1901
1856
1843
1850
1872
1919
1949
1955
1934
1906
1904
1923
1949
1968
1974
1950
1925
1909
1904
1942
1982
2026
2045
2031
1996
1959
1941
1953
1972
1994
1998
1997
1975
1971
1972
1998
2030
2038
2041
2028
2001
1959
1923
1916
1936
1953
1988
2011
2020
2000
1975
1962
1968
1991
2022
2054
2056
2055
2032
2014
2017
2032
2046
2054
2034
2015
1996
1973
1986
2026
2082
2121
2137
2113
2066
2021
2015
2035
2084
2137
2170
2157
2127
2087
2075
2095
2128
2147
2167
2183
2161
2112
2068
2065
2095
2126
2174
2186
2173
2134
2094
2065
2068
2096
2128
2143
2134
2100
2054
2031
2046
2087
2130
2169
2189
2170
2127
2081
2046
2039
2068
2078
2094
2087
2066
2041
2053
2086
2118
2161
2193
2207
2182
2139
2094
2074
2095
2121
2142
2155
2130
2085
2052
2044
2063
2091
2096
2096
2071
2019
1968
1938
1955
1999
2046
2064
2045
2014
1949
1920
1909
1922
1942
1951
1937
1919
1887
1871
1885
1911
1941
1972
1973
1963
1947
1938
1948
1983
2033
2081
2110
2105
2061
1997
1957
1951
1971
2000
2029
2033
2021
1984
1949
1951
1976
2019
2053
2055
2013
1956
1885
1851
1861
1892
1915
1935
1951
1950
1927
1889
1870
1872
1895
1917
1920
1886
1831
1777
1746
1762
1801
1841
1893
1920
1929
1890
1867
1872
1904
1959
2002
2034
2021
1979
1933
1916
1931
1967
1989
2000
1975
1915
1830
1766
1755
1771
1800
1821
1835
1840
1831
1838
1873
1936
1991
2017
2014
1983
1945
1931
1958
2015
2086
2126
2128
2105
2064
2000
1958
1930
1935
1947
1966
1982
1970
1945
1929
1950
1991
2047
2071
2075
2043
1974
1899
1847
1827
1865
1891
1914
1921
1915
1904
1906
1930
1970
2014
2035
2047
2042
2015
2000
2003
2019
2042
2062
2069
2070
2055
2030
2031
2059
2063
2031
1968
1904
1849
1823
1831
1874
1938
2001
2019
1998
1955
1876
1804
1785
1801
1826
1843
1858
1860
1840
1815
1818
1837
1872
1905
1913
1898
1866
1855
1874
1931
1985
2022
2023
2009
1981
1942
1921
1922
1933
1942
1927
1895
1858
1834
1830
1838
1861
1899
1941
1965
1975
1938
1895
1872
1885
1930
1983
2016
2019
1997
1954
1931
1950
2000
2058
2094
2109
2096
2069
2045
2032
2042
2088
2129
2167
2160
2109
2061
2054
2085
2123
2143
2119
2067
2000
1949
1914
1911
1923
1947
1954
1954
1935
1904
1869
1862
1885
1916
1936
1937
1909
1865
1825
1818
1840
1889
1937
1967
1966
1943
1920
1902
1905
1934
1953
1953
1945
1925
1891
1865
1863
1891
1934
1971
2006
2017
1980
1938
1921
1935
1947
1951
1932
1910
1887
1874
1899
1950
2021
2095
2129
2135
2109
2066
2010
1983
1984
2007
2035
2065
2085
2096
2096
2089
2103
2128
2155
2153
2123
2079
2041
2028
2032
2059
2089
2094
2092
2062
1995
1937
1931
1969
2015
2043
2055
2045
2028
1978
1954
1968
2000
2032
2046
2039
1998
1947
1897
1872
1882
1883
1876
1872
1849
1831
1813
1819
1852
1901
1937
1963
1962
1949
1919
1918
1941
1977
1998
1980
1927
1876
1825
1777
1767
1785
1821
1862
1895
1905
1874
1824
1790
1794
1827
1859
1874
1876
1883
1890
1904
1935
1959
1984
1974
1965
1916
1853
1819
1829
1875
1938
1980
2000
1999
1972
1962
1974
2007
2032
2046
2037
2016
1984
1947
1939
1975
2023
2081
2111
2115
2112
2080
2061
2059
2077
2096
2133
2153
2144
2102
2047
2032
2062
2096
2109
2090
2055
2027
1986
1982
2006
2032
2045
2053
2053
2033
2026
2011
2015
2046
2091
2112
2110
2081
2023
1988
1989
2034
2093
2129
2147
2128
2071
2014
1985
1984
2025
2093
2113
2094
2045
1982
1936
1925
1963
2003
2037
2058
2041
2021
2000
1997
2006
2018
2037
2064
2092
2107
2096
2097
2128
2151
2170
2160
2146
2117
2083
2041
2037
2066
2112
2160
2186
2176
2145
2106
2082
2091
2096
2096
2102
2096
2064
2030
2018
2032
2079
2115
2112
2092
2043
1981
1934
1925
1950
1990
2026
2027
1987
1941
1890
1883
1895
1917
1953
1984
2006
2006
1981
1943
1938
1968
2000
2021
2033
2030
2002
1967
1933
1927
1948
1965
1974
1978
1982
1989
2002
2047
2096
2105
2073
2011
1959
1903
1874
1894
1939
1984
2010
2023
1994
1939
1903
1892
1929
1995
2047
2082
