2201
2032
1938
1991
2111
2209
2229
2131
1950
1764
1686
1743
1904
2075
2189
2193
2106
1966
1923
2026
2258
2506
2690
2702
2544
2283
2015
1843
1745
1709
1674
1606
1454
1293
1143
1136
1268
1511
1746
1909
1937
1846
1680
1590
1621
1757
1921
2056
2067
1958
1787
1650
1636
1747
1925
2068
2114
2045
1894
1729
1676
1744
1915
2085
2176
2143
2000
1829
1726
1751
1899
2083
2214
2233
2123
1945
1809
1797
1905
2090
2240
2303
2240
2096
1931
1882
1958
2146
2326
2438
2432
2308
2139
2039
2096
2255
2451
2593
2618
2517
2351
2223
2209
2332
2518
2669
2715
2631
2466
2289
2213
2263
2399
2519
2581
2507
2325
2104
1952
1932
2026
2146
2219
2187
2047
1853
1695
1664
1754
1904
2026
2063
1968
1776
1613
1552
1629
1796
1941
2016
1977
1830
1635
1520
1535
1693
1861
1978
1984
1874
1691
1535
1515
1624
1797
1938
1985
1909
1755
1592
1521
1597
1751
1889
1970
1939
1818
1645
1569
1623
1791
1969
2096
2099
1988
1823
1689
1686
1805
1977
2117
2158
2067
1889
1710
1634
1677
1823
1965
2011
1958
1806
1622
1509
1533
1669
1836
1948
1953
1854
1687
1535
1535
1654
1818
1939
1987
1919
1758
1596
1535
1626
1793
1933
2003
1957
1813
1634
1535
1578
1712
1874
1984
1970
1847
1651
1495
1482
1599
1776
1925
1989
1949
1846
1747
1776
1969
2286
2590
2791
2827
2695
2455
2274
2178
2135
2063
1921
1710
1434
1162
995
1020
1200
1457
1680
1792
1762
1637
1491
1459
1582
1735
1891
1968
1921
1783
1608
1511
1553
1712
1887
2000
1987
1860
1685
1584
1600
1733
1910
2038
2084
2011
1840
1682
1647
1739
1918
2077
2160
2115
1968
1793
1712
1775
1932
2111
2224
2220
2101
1917
1792
1798
1938
2141
2301
2355
2286
2127
1977
1953
2059
2249
2421
2515
2478
2341
2170
2113
2185
2353
2532
2645
2633
2497
2307
2166
2154
2258
2416
2518
2522
2398
2202
2002
1926
1968
2093
2192
2223
2123
1951
1737
1617
1638
1763
1901
1968
1930
1781
1588
1439
1430
1555
1727
1841
1867
1776
1605
1430
1381
1462
1634
1791
1854
1804
1657
1479
1385
1422
1579
1744
1849
1835
1710
1520
1397
1397
1523
1698
1824
1847
1759
1601
1438
1392
1477
1659
1835
1934
1901
1759
1590
1491
1555
1731
1918
2031
2011
1872
1680
1535
1520
1641
1799
1906
1903
1779
1593
1395
1328
1409
1582
1734
1806
1746
1584
1392
1303
1349
1511
1677
1774
1751
1625
1441
1314
1319
1453
1646
1781
1798
1677
1518
1358
1327
1427
1614
1766
1829
1774
1616
1424
1326
1365
1513
1677
1771
1754
1639
1487
1417
1493
1711
1991
2256
2438
2512
2514
2496
2533
2630
2741
2768
2657
2350
1904
1454
1175
1104
1206
1360
1488
1523
1458
1341
1266
1307
1461
1663
1808
1840
1749
1587
1435
1415
1525
1681
1866
1923
1881
1719
1523
1442
1510
1685
1872
1983
1969
1849
1680
1559
1583
1717
1902
2032
2062
1939
1767
1621
1614
1739
1931
2098
2177
2128
1973
1795
1722
1787
1959
2131
2242
2237
2115
1933
1831
1875
2042
2241
2394
2434
2358
2207
2064
2042
2157
2338
2491
2559
2512
2359
2169
2095
2151
2331
2509
2614
2583
2432
2233
2091
2073
2167
2303
2383
2354
2197
1973
1776
1711
1787
1936
2045
2064
1958
1770
1570
1474
1527
1663
1839
1923
1883
1739
1535
1418
1428
1570
1744
1857
1865
1758
1581
1409
1373
1487
1691
1853
1898
1819
1647
1445
1379
1456
1630
1796
1899
1857
1724
1522
1396
1411
1563
1739
1857
1874
1771
1597
1450
1447
1585
1776
1925
1981
1926
1766
1585
1515
1595
1762
1915
1995
1936
1753
1559
1405
1404
1527
1697
1814
1824
1710
1517
1355
1327
1429
1604
1750
1801
1711
1534
1360
1296
1360
1527
1707
1803
1775
1630
1441
1337
1346
1497
1678
1791
1793
1680
1510
1373
1351
1472
1658
1798
1841
1786
1600
1409
1339
1409
1604
1805
1951
1986
1931
1840
1845
2003
2299
2597
2795
2817
2665
2368
2060
1806
1635
1535
1475
1401
1265
1083
929
938
1104
1369
1623
1779
1783
1654
1471
1357
1382
1533
1726
1849
1859
1754
1591
1445
1431
1555
1744
1894
1941
1865
1707
1525
1473
1535
1750
1918
2000
1951
1810
1634
1535
1571
1725
1905
2034
2043
1930
1772
1638
1643
1771
1951
2085
2138
2062
1909
1759
1723
1819
2007
2190
2288
2260
2139
1975
1882
1926
2094
2288
2418
2437
2352
2192
2053
2034
2160
2341
2482
2523
2448
2276
2091
2007
2064
2207
2343
2395
2309
2125
1904
1769
1766
1874
2004
2083
2047
1904
1701
1526
1483
1577
1730
1853
1887
1803
1635
1453
1382
1455
1627
1777
1853
1804
1654
1455
1335
1360
1514
1693
1804
1799
1683
1493
1359
1345
1455
1639
1787
1827
1757
1609
1467
1423
1495
1664
1807
1886
1851
1712
1520
1413
1470
1646
1835
1970
1979
1863
1680
1535
1526
1659
1840
1983
2031
1961
1798
1628
1577
1650
1807
1947
2000
1936
1780
1584
1483
1520
1678
1867
1979
1972
1853
1679
1535
1534
1648
1818
1951
1982
1886
1712
1535
1488
1587
1759
1917
1987
1933
1776
1584
1479
1526
1696
1874
1982
1969
1827
1646
1515
1511
1631
1820
1962
1999
1923
1787
1648
1642
1777
2015
2255
2421
2480
2435
2320
2243
2241
2303
2339
2295
2100
1767
1393
1121
1042
1147
1355
1535
1663
1659
1579
1474
1485
1605
1812
1979
2063
2003
1865
1690
1609
1664
1828
2001
2122
2110
1984
1805
1664
1663
1803
1990
2143
2175
2089
1915
1747
1713
1808
1991
2167
2256
2207
2047
1873
1791
1841
1993
2178
2317
2321
2207
2025
1893
1897
2032
2219
2355
2402
2321
2173
2031
2010
2115
2295
2467
2559
2525
2371
2192
2118
2181
2353
2535
2646
2627
2493
2306
2171
2165
2284
2449
2589
2605
2490
2294
2110
2047
2118
2257
2369
2405
2315
2128
1904
1777
1807
1917
2064
2145
2111
1959
1759
1618
1599
1712
1873
2000
2028
1923
1748
1582
1535
1639
1793
1941
1994
1921
1770
1582
1478
1520
1669
1848
1961
1947
1808
1605
1458
1463
1606
1794
1936
1968
1872
1695
1524
1485
1570
1742
1898
1978
1933
1789
1616
1533
1599
1749
1919
2028
2016
1891
1719
1600
1607
1731
1909
2047
2070
1968
1765
1579
1510
1591
1751
1890
1941
1879
1714
1526
1437
1487
1654
1806
1896
1882
1749
1573
1443
1455
1586
1762
1897
1920
1826
1666
1488
1451
1535
1727
1872
1920
1863
1730
1570
1503
1567
1726
1885
1968
1930
1801
1621
1491
1518
1677
1882
2054
2124
2077
1962
1877
1936
2113
2373
2559
2640
2525
2277
1959
1707
1562
1521
1527
1518
1440
1284
1156
1095
1185
1391
1643
1840
1913
1843
1679
1526
1513
1616
1782
1932
1998
1936
1791
1611
1535
1593
1746
1910
2000
1987
1875
1711
1601
1638
1761
1939
2075
2101
2007
1843
1680
1649
1753
1923
2076
2135
2069
1919
1761
1709
1782
1957
2140
2254
2238
2108
1960
1866
1897
2047
2241
2384
2429
2347
2186
2038
2026
2147
2341
2501
2559
2529
2396
2229
2159
2213
2384
2549
2650
2615
2469
2271
2143
2141
2254
2399
2495
2475
2336
2126
1936
1872
1934
2075
2177
2193
2096
1899
1678
1555
1590
1741
1904
1999
1949
1794
1595
1453
1453
1584
1745
1859
1869
1763
1584
1418
1391
1495
1687
1837
1881
1791
1625
1450
1383
1435
1602
1762
1861
1826
1680
1488
1369
1380
1535
1719
1847
1859
1733
1535
1391
1371
1479
1664
1815
1875
1812
1664
1490
1435
1505
1687
1856
1963
1947
1808
1616
1500
1515
1649
1799
1919
1906
1775
1569
1382
1330
1419
1587
1725
1763
1682
1520
1343
1283
1357
1532
1693
1779
1734
1584
1390
1275
1302
1458
1649
1787
1802
1694
1511
1361
1339
1439
1621
1773
1811
1739
1589
1414
1356
1427
1600
1747
1827
1779
1639
1456
1363
1423
1616
1847
2032
2113
2096
2027
2021
2144
2355
2586
2713
2689
2480
2138
1722
1392
1233
1242
1295
1330
1296
1193
1072
1038
1136
1344
1578
1732
1762
1659
1474
1327
1309
1414
1586
1727
1786
1717
1562
1392
1342
1424
1603
1773
1857
1818
1680
1501
1401
1440
1579
1747
1887
1899
1792
1607
1467
1465
1597
1777
1926
1970
1899
1744
1579
1518
1606
1805
1963
2066
2034
1904
1733
1647
1701
1866
2059
2192
2223
2132
1974
1853
1857
1983
2173
2326
2381
2305
2170
2018
1970
2061
2225
2382
2467
2427
2266
2068
1943
1949
2075
2209
2285
2240
2086
1859
1676
1626
1712
1863
1971
1984
1872
1659
1453
1346
1390
1526
1680
1749
1705
1535
1344
1222
1238
1377
1535
1653
1630
1488
1309
1167
1148
1249
1429
1574
1612
1521
1343
1168
1104
1179
1359
1517
1599
1535
1392
1217
1126
1168
1327
1507
1623
1616
1490
1306
1165
1155
1283
1463
1637
1691
1636
1498
1326
1278
1360
1535
1706
1802
1788
1662
1485
1392
1418
1561
1715
1815
1807
1648
1427
1271
1246
1346
1517
1648
1682
1591
1415
1245
1191
1265
1435
1585
1661
1626
1485
1307
1210
1253
1397
1571
1680
1675
1558
1365
1200
1190
1316
1514
1662
1694
1605
1429
1266
1200
1277
1435
1580
1645
1583
1421
1234
1140
1216
1424
1680
1889
2006
2031
2015
2061
2214
2435
2653
2767
2711
2475
2096
1635
1287
1115
1107
1153
1187
1151
1041
912
879
975
1185
1398
1531
1525
1411
1237
1113
1114
1234
1413
1565
1602
1509
1375
1207
1154
1237
1423
1589
1674
1635
1491
1298
1204
1249
1407
1584
1701
1712
1602
1433
1305
1316
1448
1645
1783
1829
1748
1591
1437
1392
1483
1677
1851
1936
1892
1776
1630
1570
1632
1801
1984
2112
2122
2026
1872
1766
1779
1915
2106
2250
2290
2214
2065
1921
1903
1995
2178
2340
2425
2379
2224
2031
1925
1943
2070
2209
2279
2242
2105
1878
1728
1702
1790
1933
2035
2037
1922
1729
1535
1469
1535
1675
1797
1859
1804
1646
1449
1359
1394
1535
1735
1853
1841
1713
1517
1373
1360
1478
1658
1791
1817
1722
1532
1357
1300
1383
1559
1689
1749
1701
1569
1394
1307
1353
1511
1691
1793
1767
1625
1447
1328
1334
1467
1653
1809
1868
1809
1638
1477
1435
1526
1714
1867
1935
1890
1751
1583
1495
1535
1696
1843
1919
1873
1723
1501
1328
1327
1463
1651
1797
1822
1744
1566
1382
1333
1425
1600
1756
1817
1750
1600
1408
1328
1384
1535
1725
1825
1806
1673
1487
1352
1347
1480
1663
1791
1818
1714
1535
1375
1328
1421
1605
1749
1796
1727
1567
1418
1367
1474
1710
1949
2129
2209
2197
2147
2140
2240
2407
2559
2618
2506
2229
1808
1371
1104
1047
1149
1284
1389
1411
1347
1264
1270
1405
1623
1835
1957
1978
1875
1719
1611
1623
1751
1935
2083
2114
2013
1834
1674
1645
1749
1947
2123
2202
2150
1997
1821
1744
1798
1952
2122
2236
2227
2103
1922
1815
1849
1991
2171
2307
2337
2246
2075
1922
1891
1994
2176
2343
2429
2398
2275
2124
2058
2127
2299
2477
2581
2559
2467
2309
2217
2249
2390
2582
2730
2769
2688
2512
2352
2321
2422
2602
2747
2791
2711
2538
2337
2230
2256
2385
2531
2610
2559
2409
2189
2023
1995
2081
2204
2313
2315
2192
1988
1806
1745
1829
1981
2131
2195
2128
1963
1776
1685
1739
1893
2064
2159
2124
1978
1791
1677
1702
1814
1990
2122
2135
2032
1858
1712
1680
1783
1965
2109
2158
2099
1946
1776
1712
1787
1953
2112
2211
2195
2070
1899
1786
1814
1950
2159
2304
2326
2224
2063
1909
1875
1971
2155
2302
2362
2304
2153
1977
1905
1957
2096
2237
2308
2259
2103
1904
1771
1779
1917
2096
2215
2231
2135
1965
1808
1774
1872
2055
2208
2259
2186
2018
1825
1735
1809
1963
2129
2225
2215
2098
1925
1815
1844
1985
2165
2288
2294
2185
1994
1831
1803
1901
2057
2192
2269
2211
2067
1907
1876
1993
2209
2418
2559
2623
2559
2455
2403
2427
2515
2611
2622
2495
2215
1835
1500
1337
1360
1510
1674
1770
1766
1681
1586
1589
1710
1911
2093
2186
2160
2032
1851
1743
1765
1905
2075
2192
2195
2097
1919
1791
1774
1884
2059
2201
2253
2182
2017
1841
1761
1811
1970
2130
2228
2195
2057
1863
1746
1770
1905
2082
2194
2202
2087
1898
1734
1702
1803
1965
2096
2140
2074
1904
1738
1664
1722
1875
2034
2125
2095
1947
1763
1662
1690
1841
2019
2145
2146
2032
1838
1669
1633
1721
1887
2022
2047
1942
1751
1553
1456
1495
1615
1728
1776
1685
1504
1278
1119
1098
1198
1328
1407
1379
1221
1023
839
782
867
1019
1146
1177
1073
895
715
631
686
842
1007
1107
1059
901
717
606
617
749
914
1047
1059
925
735
597
589
702
879
1020
1081
1001
832
665
605
656
807
966
1066
1038
881
688
591
637
800
993
1136
1150
1042
855
718
706
799
1004
1167
1223
1150
986
811
739
784
925
1069
1121
1055
911
722
630
669
822
999
1130
1130
1003
816
672
652
751
928
1079
1135
1046
889
718
653
726
898
1060
1145
1104
950
770
678
725
853
1023
1155
1169
1063
882
752
734
848
1023
1170
1214
1136
989
875
875
999
1245
1505
1712
1793
1744
1603
1485
1454
1482
1529
1471
1263
943
593
341
283
395
617
833
963
961
871
781
771
868
1061
1241
1344
1300
1152
971
880
906
1072
1277
1410
1425
1321
1147
1007
1001
1122
1305
1459
1514
1447
1291
1134
1090
1168
1327
1487
1584
1566
1414
1250
1167
1219
1381
1571
1692
1696
1570
1386
1264
1265
1392
1584
1735
1791
1731
1599
1456
1422
1517
1705
1881
1993
1985
1869
1717
1650
1712
1877
2064
2173
2176
2075
1897
1771
1766
1887
2064
2193
2224
2122
1934
1749
1671
1717
1850
1970
2026
1961
1790
1582
1451
1444
1574
1721
1808
1783
1651
1456
1318
1302
1411
1606
1743
1799
1711
1535
1371
1311
1383
1571
1735
1825
1791
1640
1457
1366
1408
1563
1733
1849
1840
1716
1523
1390
1395
1523
1713
1867
1910
1834
1685
1532
1490
1563
1757
1915
1986
1959
1835
1666
1596
1651
1819
2006
2138
2135
2014
1839
1707
1715
1858
2062
2221
2262
2177
2001
1808
1730
1786
1924
2063
2124
2069
1905
1719
1620
1663
1792
1965
2090
2087
1966
1779
1645
1637
1757
1935
2065
2108
2025
1870
1712
1663
1744
1913
2069
2137
2093
1953
1779
1689
1727
1872
2047
2161
2154
2021
1826
1680
1663
1776
1952
2098
2146
2091
1966
1857
1879
2067
2352
2655
2878
2951
2874
2699
2541
2466
2448
2410
2271
2017
1700
1389
1200
1185
1342
1585
1801
1915
1891
1780
1658
1632
1731
1915
2077
2150
2103
1957
1783
1699
1751
1910
2087
2219
2223
2112
1936
1808
1810
1933
2112
2245
2276
2181
2046
1904
1882
1975
2159
2325
2411
2366
2223
2046
1968
2029
2196
2380
2506
2512
2407
2244
2128
2141
2265
2448
2607
2657
2593
2448
2310
2299
2411
2615
2799
2889
2853
2723
2559
2480
2531
2698
2878
2990
2968
2846
2672
2544
2544
2670
2832
2957
2963
2845
2640
2438
2366
2419
2551
2665
2688
2592
2398
2190
2070
2096
2230
2377
2455
2435
2298
2106
1956
1931
2038
2203
2325
2341
2228
2033
1858
1814
1920
2082
2233
2307
2267
2121
1936
1849
1885
2032
2195
2296
2279
2155
1968
1834
1831
1959
2143
2274
2304
2218
2057
1879
1831
1923
2112
2268
2349
2303
2170
1999
1927
1989
2161
2343
2463
2454
2337
2160
2031
2027
2164
2352
2485
2507
2407
2207
2014
1933
1981
2125
2250
2304
2237
2071
1872
1781
1821
1972
2141
2242
2224
2095
1898
1758
1746
1877
2064
2192
2197
2106
1931
1761
1722
1819
1994
2144
2196
2140
1984
1814
1731
1776
1940
2126
2234
2215
2074
1869
1727
1723
1872
2053
2218
2285
2265
2188
2128
2221
2457
2798
3138
3356
3376
3216
2951
2747
2617
2527
2414
2245
2011
1745
1488
1342
1382
1555
1795
1992
2086
2033
1895
1754
1713
1803
1952
2112
2190
2142
1999
1817
1738
1790
1946
2112
2207
2192
2057
1877
1764
1765
1883
2046
2171
2189
2112
1955
1814
1790
1894
2080
2239
2305
2254
2112
1931
1852
1907
2076
2240
2338
2327
2223
2068
1973
2011
2175
2373
2519
2559
2487
2338
2211
2202
2323
2518
2695
2773
2730
2589
2416
2355
2422
2605
2782
2885
2867
2746
2553
2422
2431
2549
2711
2829
2831
2703
2483
2275
2208
2273
2418
2527
2543
2427
2224
2000
1879
1920
2029
2177
2256
2211
2045
1845
1696
1689
1813
1981
2108
2118
2002
1821
1655
1611
1693
1863
2009
2073
2007
1879
1687
1626
1673
1825
1985
2081
2047
1901
1719
1602
1621
1766
1962
2099
2112
1992
1805
1641
1610
1706
1888
2063
2141
2102
1953
1790
1724
1776
1932
2096
2203
2183
2059
1873
1762
1790
1935
2105
2218
2211
2086
1874
1687
1633
1709
1857
2007
2061
1996
1837
1644
1535
1601
1778
1962
2066
2031
1895
1705
1602
1618
1744
1910
2041
2065
1965
1795
1648
1616
1715
1889
2045
2112
2042
1882
1697
1607
1661
1827
1991
2079
2044
1894
1701
1577
1593
1741
1946
2121
2198
2178
2111
2071
2179
2419
2721
2954
3024
2897
2618
2256
1947
1729
1610
1579
1555
1463
1325
1183
1141
1249
1467
1725
1903
1941
1872
1722
1583
1561
1663
1847
2013
2084
2017
1872
1691
1615
1670
1822
1984
2091
2075
1941
1765
1651
1671
1813
1997
2125
2137
2053
1881
1744
1723
1829
1995
2150
2215
2155
1995
1823
1759
1810
1979
2163
2278
2267
2149
1983
1885
1920
2071
2257
2400
2430
2339
2190
2070
2078
2195
2399
2559
2640
2559
2429
2257
2195
2267
2449
2622
2710
2673
2519
2326
2201
2208
2320
2467
2559
2559
2423
2202
2015
1961
2027
2171
2274
2287
2177
1983
1781
1686
1727
1867
2006
2096
2045
1904
1712
1591
1605
1729
1895
2031
2043
1931
1734
1570
1532
1630
1815
1952
1994
1920
1761
1589
1503
1572
1739
1904
2000
1978
1849
1681
1588
1616
1749
1908
2021
2031
1925
1755
1616
1596
1711
1896
2057
2121
2063
1901
1754
1703
1763
1927
2097
2193
2162
2011
1819
1685
1685
1807
1974
2067
2057
1914
1712
1513
1481
1597
1771
1918
1969
1899
1728
1535
1458
1513
1677
1835
1921
1881
1717
1526
1415
1441
1579
1742
1854
1851
1738
1535
1397
1375
1468
1646
1778
1813
1728
1554
1373
1298
1351
1531
1695
1777
1726
1585
1420
1341
1398
1591
1810
1998
2077
2057
1968
1903
1911
1984
2083
2112
2025
1782
1402
1002
756
699
799
945
1074
1099
1038
927
893
971
1160
1364
1514
1520
1401
1226
1075
1040
1134
1328
1472
1520
1431
1261
1072
989
1053
1201
1360
1442
1392
1223
1035
914
937
1075
1239
1344
1339
1223
1042
895
871
970
1136
1282
1337
1266
1104
943
882
959
1143
1323
1443
1424
1296
1127
1033
1073
1232
1445
1584
1597
1489
1323
1189
1189
1322
1513
1677
1735
1669
1511
1350
1296
1365
1531
1706
1777
1722
1563
1351
1226
1231
1344
1478
1535
1518
1382
1169
990
938
1018
1155
1274
1302
1200
1014
825
742
798
933
1089
1164
1108
959
782
678
695
833
1002
1127
1136
1023
849
710
693
800
975
1115
1146
1058
887
710
657
747
927
1094
1178
1123
994
807
702
727
880
1071
1206
1212
1107
941
814
813
951
1126
1292
1376
1328
1184
1023
978
1065
1233
1402
1488
1447
1293
1093
963
965
1088
1249
1367
1362
1255
1075
939
927
1045
1232
1391
1438
1361
1198
1019
960
1034
1200
1367
1460
1423
1280
1092
979
1013
1179
1362
1488
1503
1397
1218
1075
1063
1179
1362
1513
1563
1472
1301
1131
1074
1153
1328
1511
1648
1659
1552
1424
1395
1513
1758
2038
2254
2307
2199
1971
1744
1607
1575
1582
1518
1393
1200
974
787
753
884
1136
1386
1552
1594
1519
1382
1323
1378
1554
1744
1869
1867
1744
1559
1412
1404
1521
1707
1867
1925
1859
1716
1535
1495
1589
1771
1935
2025
1986
1843
1665
1571
1618
1781
1957
2085
2102
1999
1826
1701
1698
1825
2006
2151
2195
2123
1970
1823
1786
1874
2064
2233
2329
2295
2162
1994
1927
1995
2179
2379
2519
2537
2431
2263
2146
2160
2299
2480
2638
2672
2588
2418
2245
2190
2256
2423
2559
2635
2559
2387
2173
2038
2037
2154
2288
2368
2334
2193
1986
1821
1787
1870
2015
2139
2174
2090
1918
1741
1674
1740
1884
2059
2128
2071
1921
1728
1623
1659
1813
1996
2115
2117
1984
1792
1667
1669
1787
1965
2096
2127
2038
1873
1712
1662
1756
1923
2093
2177
2139
1995
1811
1718
1775
1937
2134
2258
2277
2185
2023
1903
1899
2015
2212
2365
2417
2342
2177
2003
1940
2000
2176
2333
2405
2342
2176
1979
1871
1899
2033
2211
2320
2319
2191
2007
1870
1865
1986
2177
2323
2355
2266
2094
1917
1872
1950
2154
2323
2406
2356
2192
1997
1907
1962
2123
2295
2405
2398
2271
2096
1959
1949
2064
2231
2367
2391
2295
2137
1982
1945
2066
2282
2507
2663
2703
2670
2619
2655
2797
3007
3201
3269
3141
2839
2421
2009
1770
1715
1793
1898
1931
1898
1765
1668
1698
1840
2075
2288
2402
2370
2234
2053
1959
1999
2160
2334
2443
2446
2327
2154
2029
2030
2160
2336
2473
2509
2409
2233
2083
2044
2141
2318
2483
2559
2512
2354
2187
2111
2159
2320
2498
2613
2613
2497
2321
2183
2181
2317
2506
2653
2690
2609
2455
2322
2288
2384
2592
2783
2886
2842
2697
2530
2453
2506
2681
2875
3003
3009
2895
2714
2581
2559
2688
2855
3006
3037
2937
2754
2559
2487
2551
2713
2850
2896
2807
2615
2382
2241
2239
2352
2496
2588
2549
2411
2210
2046
2022
2123
2283
2398
2400
2290
2129
1963
1914
1987
2156
2289
2336
2285
2138
1959
1872
1911
2064
2230
2329
2316
2176
1987
1856
1854
1977
2162
2307
2341
2246
2080
1907
1855
1933
2112
2271
2337
2286
2131
1968
1894
1961
2139
2325
2443
2428
2308
2134
2000
1999
2131
2311
2437
2453
2368
2199
2019
1950
1995
2139
2265
2307
2235
2069
1872
1767
1799
1952
2127
2235
2221
2096
1907
1776
1771
1887
2067
2192
2215
2121
1935
1751
1701
1792
1969
2133
2210
2160
2000
1815
1721
1755
1898
2047
2128
2105
1984
1810
1681
1675
1787
1959
2107
2158
2115
1990
1907
1951
2154
2457
2778
3016
3120
3052
2893
2757
2701
2691
2643
2475
2192
1850
1520
1297
1257
1392
1616
1815
1918
1875
1755
1623
1602
1698
1871
2021
2092
2031
1872
1691
1605
1645
1805
1988
2115
2107
1978
1808
1668
1671
1807
1987
2130
2166
2080
1911
1755
1712
1797
1971
2128
2202
2145
1991
1808
1723
1776
1936
2127
2247
2250
2144
1973
1857
1871
2002
2192
2340
2374
2290
2130
1985
1968
2078
2262
2437
2532
2509
2378
2207
2133
2181
2339
2509
2629
2623
2496
2313
2192
2199
2313
2475
2599
2609
2493
2303
2119
2037
2096
2228
2346
2372
2276
2090
1863
1741
1753
1874
2021
2112
2080
1929
1725
1577
1555
1669
1851
1986
2007
1905
1719
1535
1503
1598
1776
1933
2001
1947
1796
1607
1511
1535
1705
1861
1966
1938
1807
1626
1510
1527
1675
1863
1996
2017
1927
1757
1595
1552
1646
1817
1984
2077
2034
1902
1738
1662
1712
1875
2061
2175
2167
2061
1872
1746
1733
1845
2012
2133
2143
2018
1818
1639
1579
1647
1826
1965
2032
1968
1805
1616
1520
1578
1742
1913
2013
2001
1866
1690
1567
1568
1695
1871
2005
2032
1927
1738
1584
1535
1633
1808
1970
2042
1985
1836
1648
1553
1584
1730
1902
2000
1974
1833
1638
1504
1523
1694
1926
2151
2269
2285
2243
2245
2359
2590
2864
3069
3122
2959
2639
2224
1841
1592
1499
1503
1527
1473
1360
1219
1168
1243
1424
1697
1891
1954
1881
1717
1563
1517
1598
1749
1906
1989
1947
1795
1616
1524
1584
1739
1907
2032
2029
1907
1734
1616
1631
1775
1953
2091
2117
2026
1858
1712
1689
1808
1975
2133
2210
2157
2003
1832
1759
1817
1984
2163
2278
2261
2146
1987
1899
1935
2099
2293
2439
2484
2410
2251
2116
2100
2218
2410
2583
2669
2625
2483
2306
2228
2274
2431
2608
2718
2712
2586
2399
2269
2254
2355
2510
2624
2616
2479
2269
2067
1983
2029
2159
2274
2310
2225
2031
1807
1693
1722
1861
2021
2128
2108
1968
1772
1633
1622
1728
1903
2032
2065
1958
1778
1619
1584
1665
1823
1977
2035
1962
1807
1610
1515
1575
1735
1904
2011
2000
1871
1686
1556
1557
1685
1867
1999
2023
1923
1751
1619
1614
1727
1911
2075
2135
2082
1933
1751
1669
1723
1884
2059
2161
2139
1985
1770
1631
1631
1746
1910
2032
2037
1933
1753
1600
1554
1645
1817
1968
2029
1963
1798
1610
1526
1585
1769
1951
2079
2065
1922
1735
1616
1632
1771
1936
2071
2090
1974
1805
1655
1620
1705
1878
2036
2108
2046
1899
1710
1637
1690
1846
2013
2128
2135
2038
1894
1825
1913
2140
2416
2667
2800
2775
2615
2415
2285
2224
2213
2151
1975
1709
1398
1130
1015
1089
1315
1571
1762
1829
1763
1633
1535
1593
1744
1920
2062
2080
1946
1774
1618
1595
1693
1873
2035
2116
2065
1914
1737
1664
1712
1870
2026
2126
2085
1936
1759
1646
1660
1807
2000
2149
2167
2062
1884
1734
1710
1818
2001
2163
2235
2181
2031
1853
1783
1857
2031
2219
2323
2313
2192
2021
1920
1936
2083
2266
2414
2437
2355
2191
2030
1997
2102
2283
2446
2518
2459
2299
2111
2000
2035
2178
2331
2423
2383
2228
2010
1855
1822
1908
2057
2151
2133
1992
1782
1597
1526
1601
1744
1879
1920
1839
1653
1447
1360
1409
1581
1746
1853
1827
1685
1472
1325
1328
1455
1626
1757
1786
1691
1522
1371
1339
1431
1617
1767
1819
1767
1615
1424
1345
1405
1575
1744
1838
1805
1655
1478
1359
1375
1507
1703
1851
1886
1803
1634
1473
1439
1535
1719
1875
1941
1877
1719
1535
1469
1514
1642
1795
1893
1876
1726
1521
1383
1383
1507
1687
1818
1831
1718
1532
1375
1335
1426
1612
1762
1827
1754
1604
1406
1314
1360
1523
1701
1794
1776
1641
1447
1318
1311
1437
1633
1758
1767
1658
1482
1328
1293
1393
1584
1730
1782
1711
1535
1363
1296
1383
1600
1840
1999
2043
1989
1913
1893
1974
2143
2305
2365
2270
2007
1662
1295
1058
990
1071
1148
1185
1155
1079
985
990
1148
1365
1595
1724
1714
1595
1410
1290
1301
1429
1616
1753
1778
1682
1511
1359
1328
1425
1609
1761
1817
1757
1616
1455
1387
1443
1618
1767
1855
1841
1728
1571
1457
1472
1611
1783
1920
1932
1836
1695
1553
1535
1653
1835
1996
2068
2004
1855
1683
1627
1703
1889
2091
2211
2209
2096
1918
1803
1827
1974
2160
2306
2330
2235
2079
1941
1921
2021
2193
2340
2402
2337
2170
1975
1875
1909
2039
2179
2240
2186
2034
1821
1664
1637
1733
1877
1978
1965
1829
1635
1456
1398
1480
1654
1778
1822
1744
1574
1371
1286
1346
1515
1690
1795
1778
1639
1445
1311
1309
1452
1639
1760
1771
1664
1487
1333
1299
1395
1578
1739
1810
1747
1584
1402
1325
1375
1533
1712
1812
1795
1670
1488
1382
1408
1535
1742
1879
1903
1804
1643
1494
1472
1587
1774
1930
1989
1915
1744
1552
1456
1488
1629
1781
1858
1810
1652
1456
1335
1351
1488
1665
1787
1810
1727
1561
1408
1377
1472
1648
1806
1872
1810
1657
1488
1423
1476
1670
1836
1925
1902
1772
1593
1472
1487
1633
1814
1927
1956
1835
1683
1529
1489
1600
1790
1945
2031
1968
1851
1699
1680
1810
2061
2346
2582
2686
2641
2480
2330
2266
2264
2289
2225
2023
1719
1382
1128
1044
1146
1361
1598
1744
1755
1678
1562
1521
1604
1777
1943
2041
2023
1893
1719
1610
1620
1762
1946
2091
2115
2017
1853
1701
1663
1762
1946
2111
2174
2128
1985
1811
1743
1805
1970
2159
2273
2262
2143
1979
1873
1899
2037
2227
2368
2401
2317
2160
2026
2005
2122
2303
2457
2513
2454
2315
2162
2111
2183
2363
2547
2678
2689
2589
2429
2317
2327
2463
2662
2815
2845
2750
2559
2415
2373
2464
2631
2759
2802
2715
2530
2326
2221
2235
2353
2480
2544
2480
2303
2095
1936
1919
2023
2169
2256
2235
2114
1927
1763
1728
1805
1971
2107
2147
2079
1919
1730
1639
1684
1824
1986
2102
2075
1945
1757
1627
1626
1743
1910
2035
2063
1951
1773
1603
1568
1663
1839
1990
2059
1991
1826
1637
1555
1605
1754
1933
2029
2007
1883
1697
1581
1611
1769
1955
2091
2101
2005
1851
1712
1695
1807
1984
2132
2180
2099
1917
1705
1600
1630
1764
1919
1999
1965
1817
1623
1488
1493
1623
1794
1918
1931
1822
1650
1491
1465
1567
1744
1907
1961
1889
1706
1527
1434
1478
1634
1795
1908
1904
1776
1600
1482
1488
1630
1803
1927
1937
1823
1628
1455
1399
1488
1663
1823
1905
1887
1807
1713
1735
1904
2215
2539
2798
2890
2811
2602
2397
2274
2224
2170
2032
1791
1489
1186
951
894
1009
1241
1457
1603
1615
1517
1382
1326
1392
1535
1719
1811
1785
1648
1456
1328
1339
1483
1671
1808
1846
1775
1595
1438
1409
1520
1696
1847
1908
1853
1707
1532
1467
1535
1709
1873
1971
1956
1838
1664
1562
1582
1712
1897
2056
2089
2000
1839
1683
1655
1759
1943
2128
2215
2162
2032
1872
1819
1895
2075
2256
2377
2378
2257
2086
1981
2011
2160
2345
2480
2508
2406
2240
2092
2061
2149
2307
2448
2494
2411
2226
2022
1915
1934
2067
2206
2273
2222
2061
1840
1682
1663
1765
1918
2022
2006
1875
1680
1497
1452
1535
1725
1877
1938
1867
1701
1514
1431
1492
1659
1823
1920
1890
1761
1584
1460
1486
1637
1808
1920
1943
1851
1658
1510
1474
1584
1769
1931
1999
1936
1769
1591
1501
1557
1714
1891
2000
1997
1862
1687
1584
1615
1762
1952
2097
2128
2019
1838
1680
1665
1785
1971
2128
2183
2114
1954
1738
1631
1654
1789
1941
2016
1970
1811
1619
1508
1535
1667
1847
1982
1999
1893
1713
1552
1519
1616
1785
1935
1989
1914
1755
1582
1500
1535
1707
1872
1981
1969
1834
1648
1520
1521
1648
1830
1961
1978
1875
1703
1535
1506
1603
1778
1913
1996
1959
1840
1726
1730
1890
2188
2511
2799
2956
2963
2867
2768
2731
2737
2721
2607
2335
1955
1557
1251
1143
1225
1423
1633
1762
1759
1664
1535
1503
1584
1755
1935
2042
2017
1875
1686
1569
1573
1695
1882
2032
2059
1948
1789
1650
1629
1717
1888
2046
2114
2068
1922
1750
1665
1701
1879
2047
2160
2134
2002
1831
1718
1733
1872
2035
2177
2206
2119
1957
1818
1801
1906
2095
2250
2320
2274
2144
1964
1891
1966
2157
2342
2471
2487
2364
2197
2084
2096
2209
2397
2524
2544
2439
2260
2112
2070
2145
2301
2445
2496
2413
2237
2027
1907
1922
2039
2160
2215
2160
1989
1761
1603
1582
1675
1828
1935
1923
1776
1559
1389
1343
1424
1605
1748
1818
1726
1535
1356
1265
1307
1455
1622
1712
1683
1535
1351
1222
1226
1361
1552
1695
1717
1620
1449
1291
1250
1344
1520
1680
1749
1687
1515
1344
1267
1317
1472
1648
1734
1727
1615
1440
1329
1357
1499
1698
1842
1872
1778
1612
1456
1437
1535
1737
1898
1963
1897
1737
1555
1471
1509
1654
1808
1883
1840
1693
1488
1360
1363
1493
1691
1837
1855
1742
1588
1429
1392
1488
1661
1819
1877
1809
1642
1459
1395
1466
1641
1822
1919
1885
1739
1552
1424
1442
1584
1764
1895
1915
1819
1642
1462
1423
1517
1707
1867
1923
1859
1711
1535
1507
1618
1847
2099
2300
2399
2395
2325
2280
2303
2393
2471
2463
2320
1994
1567
1186
985
981
1135
1312
1443
1459
1387
1283
1274
1392
1609
1808
1943
1943
1825
1648
1517
1514
1637
1809
1947
1968
1865
1687
1535
1502
1611
1779
1939
2014
1959
1806
1619
1535
1584
1729
1887
1997
1989
1872
1687
1584
1606
1748
1936
2077
2103
2006
1840
1691
1668
1776
1961
2123
2194
2147
1993
1823
1762
1847
2031
2224
2334
2330
2215
2047
1936
1959
2104
2290
2448
2483
2401
2246
2097
2063
2137
2303
2448
2491
2414
2252
2064
1975
2006
2134
2259
2322
2270
2113
1906
1758
1731
1822
1963
2064
2063
1936
1728
1535
1488
1565
1738
1882
1936
1866
1680
1482
1375
1424
1605
1789
1893
1875
1730
1530
1383
1377
1507
1687
1816
1825
1717
1535
1378
1341
1441
1641
1801
1868
1809
1650
1464
1377
1429
1593
1758
1861
1842
1726
1558
1435
1445
1579
1765
1923
1979
1920
1778
1638
1609
1711
1895
2046
2115
2064
1911
1723
1638
1683
1827
1985
2078
2032
1878
1679
1535
1534
1655
1824
1955
1968
1872
1702
1535
1495
1600
1778
1935
1996
1939
1783
1589
1483
1535
1716
1887
1985
1961
1833
1647
1507
1511
1643
1809
1935
1956
1855
1683
1507
1463
1575
1747
1900
1959
1878
1707
1520
1454
1526
1726
1939
2096
2143
2086
1979
1950
2043
2224
2405
2491
2432
2209
1872
1535
1305
1227
1270
1348
1392
1351
1253
1138
1128
1253
1483
1707
1842
1853
1740
1561
1429
1440
1581
1753
1872
1877
1776
1606
1452
1425
1535
1727
1895
1959
1898
1755
1584
1493
1552
1707
1883
1999
1975
1831
1666
1569
1589
1728
1920
2069
2103
2003
1841
1681
1645
1738
1927
2097
2161
2103
1955
1799
1734
1802
1971
2160
2263
2253
2132
1956
1836
1856
1991
2185
2335
2369
2288
2127
1963
1929
2021
2222
2374
2445
2384
2224
2033
1939
1985
2128
2277
2352
2293
2128
1920
1771
1744
1847
2002
2112
2107
1983
1790
1609
1552
1625
1786
1927
1985
1919
1754
1568
1458
1491
1658
1835
1938
1922
1792
1606
1476
1473
1600
1782
1930
1961
1872
1706
1535
1501
1596
1776
1923
1991
1941
1790
1609
1520
1578
1738
1917
2031
2023
1899
1714
1584
1585
1718
1904
2054
2089
1991
1835
1702
1659
1745
1922
2086
2155
2108
1935
1753
1685
1747
1907
2081
2167
2145
2001
1807
1655
1633
1741
1904
2015
2031
1927
1761
1600
1558
1651
1836
1988
2067
2009
1856
1671
1575
1616
1777
1966
2071
2063
1927
1731
1588
1582
1712
1889
2010
2015
1920
1761
1614
1580
1673
1854
2007
2074
2000
1840
1649
1553
1595
1758
1936
2063
2074
1978
1855
1808
1911
2160
2461
2719
2831
2753
2541
2287
2112
2030
1991
1922
1799
1603
1371
1167
1102
1200
1425
1669
1858
1918
1851
1704
1582
1588
1727
1904
2034
2077
1984
1812
1658
1616
1687
1901
2066
2144
2094
1943
1770
1680
1726
1885
2065
2176
2174
2064
1887
1778
1806
1941
2128
2259
2283
2190
2029
1872
1838
1936
2123
2299
2382
2343
2218
2064
1994
2055
2203
2373
2505
2521
2416
2257
2156
2177
2321
2512
2677
2731
2655
2493
2335
2304
2403
2589
2747
2817
2763
2607
2418
2321
2365
2511
2672
2762
2723
2559
2358
2195
2166
2257
2397
2485
2473
2353
2160
1974
1902
1959
2099
2219
2277
2219
2065
1872
1776
1808
1959
2125
2226
2202
2067
1873
1736
1728
1840
2001
2146
2173
2081
1903
1744
1697
1777
1949
2103
2169
2111
1949
1758
1660
1707
1862
2032
2130
2125
2003
1831
1708
1697
1831
2016
2160
2192
2111
1946
1792
1748
1831
2001
2176
2266
2231
2091
1913
1824
1869
2033
2223
2345
2341
2221
2032
1903
1903
2017
2177
2288
2288
2166
1973
1791
1716
1776
1946
2117
2198
2151
1993
1809
1722
1758
1883
2059
2176
2171
2031
1856
1713
1712
1839
2015
2165
2193
2102
1918
1744
1702
1779
1954
2115
2197
2153
1997
1808
1710
1744
1895
2061
2156
2115
1981
1799
1685
1725
1911
2171
2390
2512
2535
2495
2473
2553
2736
2962
3149
3179
2995
2671
2257
1904
1698
1666
1721
1775
1746
1650
1520
1457
1519
1711
1936
2112
2161
2079
1911
1753
1707
1788
1962
2128
2213
2175
2022
1842
1763
1811
1983
2171
2288
2282
2162
1977
1844
1851
1987
2167
2311
2353
2266
2108
1953
1919
2000
2175
2338
2427
2385
2246
2062
1966
2015
2183
2377
2508
2513
2405
2229
2091
2069
2198
2400
2559
2619
2544
2393
2251
2217
2315
2507
2690
2787
2753
2615
2434
2335
2363
2512
2702
2832
2833
2704
2498
2347
2323
2420
2559
2675
2676
2551
2351
2150
2057
2081
2201
2325
2384
2310
2131
1913
1785
1785
1902
2038
2137
2114
1983
1787
1648
1630
1741
1907
2044
2082
1973
1804
1623
1575
1648
1819
1983
2073
2015
1845
1645
1535
1589
1737
1905
2016
2010
1885
1696
1535
1522
1639
1813
1951
2000
1915
1744
1573
1503
1571
1744
1909
2005
1984
1851
1687
1606
1658
1811
1984
2117
2128
2007
1826
1712
1723
1854
2035
2192
2227
2134
1958
1774
1699
1750
1907
2042
2109
2023
1865
1669
1558
1585
1740
1915
2032
2039
1918
1729
1584
1573
1690
1862
2000
2033
1950
1792
1636
1596
1680
1856
2012
2087
2032
1887
1699
1600
1621
1761
1936
2056
2064
1946
1760
1615
1599
1691
1854
1983
2030
1960
1828
1712
1745
1936
2201
2487
2761
2911
2935
2867
2831
2853
2922
2947
2853
2559
2134
1665
1321
1182
1223
1390
1574
1674
1668
1585
1479
1475
1604
1797
1962
2035
1989
1840
1649
1535
1573
1712
1863
1980
1975
1869
1687
1552
1523
1647
1827
1989
2047
1973
1826
1669
1615
1669
1856
2015
2107
2065
1923
1744
1649
1683
1837
2015
2155
2157
2037
1865
1728
1719
1841
2035
2205
2256
2176
2021
1872
1840
1937
2133
2320
2423
2386
2270
2111
2017
2077
2238
2426
2559
2559
2462
2278
2133
2117
2223
2385
2519
2559
2481
2302
2110
2015
2047
2179
2304
2353
2282
2093
1842
1693
1680
1788
1936
2033
2014
1878
1678
1501
1462
1569
1727
1858
1883
1777
1589
1394
1326
1389
1535
1697
1774
1727
1579
1383
1270
1282
1394
1600
1723
1719
1603
1415
1274
1252
1360
1523
1664
1684
1610
1451
1293
1238
1311
1479
1648
1724
1680
1513
1313
1200
1233
1395
1593
1727
1759
1680
1521
1388
1367
1477
1639
1793
1846
1782
1630
1454
1375
1435
1601
1741
1795
1744
1584
1367
1235
1235
1357
1520
1637
1636
1515
1317
1168
1152
1264
1441
1599
1648
1569
1392
1221
1166
1239
1421
1594
1683
1648
1503
1326
1216
1232
1392
1571
1702
1711
1600
1418
1265
1239
1344
1520
1676
1728
1641
1457
1263
1188
1262
1441
1648
1796
1854
1809
1749
1787
1962
2282
2601
2802
2822
2666
2379
2075
1831
1675
1590
1517
1423
1264
1086
925
911
1067
1324
1584
1749
1779
1687
1503
1402
1428
1587
1775
1906
1931
1826
1665
1531
1521
1646
1839
1991
2042
1983
1830
1675
1628
1704
1872
2041
2133
2110
1972
1805
1711
1734
1883
2067
2200
2224
2137
1968
1851
1852
1970
2155
2310
2385
2332
2182
2026
1982
2071
2255
2447
2559
2557
2437
2271
2187
2251
2432
2645
2797
2834
2743
2585
2446
2436
2551
2742
2895
2936
2851
2682
2498
2432
2479
2625
2795
2882
2832
2658
2433
2284
2259
2357
2496
2593
2559
2418
2192
1997
1933
1994
2137
2270
2306
2221
2037
1853
1774
1835
2000
2163
2246
2192
2023
1840
1733
1759
1901
2065
2175
2176
2065
1879
1727
1691
1787
1959
2102
2121
2027
1874
1713
1663
1739
1905
2071
2155
2112
1959
1773
1648
1664
1808
1991
2132
2155
2047
1888
1755
1743
1872
2034
2188
2241
2173
2011
1841
1778
1842
1989
2150
2230
2197
2054
1850
1717
1707
1814
1958
2062
2064
1949
1767
1616
1587
1681
1859
2009
2075
1986
1817
1637
1559
1623
1791
1955
2046
2013
1858
1664
1535
1553
1689
1846
1980
2011
1914
1738
1584
1554
1651
1815
1951
1995
1910
1775
1597
1511
1559
1710
1879
1990
1987
1897
1767
1714
1807
2064
2357
2613
2720
2640
2443
2247
2117
2070
2043
1946
1758
1488
1194
960
867
962
1202
1458
1658
1718
1646
1507
1434
1475
1634
1810
1952
1968
1872
1706
1535
1505
1607
1794
1948
2001
1936
1808
1649
1600
1664
1824
1990
2087
2064
1936
1761
1648
1670
1815
1987
2111
2119
2014
1845
1687
1637
1735
1943
2122
2202
2158
2014
1843
1778
1847
2016
2199
2313
2300
2160
1978
1879
1915
2081
2277
2431
2473
2386
2235
2096
2071
2167
2347
2497
2557
2484
2323
2162
2094
2134
2297
2446
2533
2491
2341
2137
1983
1959
2030
2155
2257
2253
2127
1931
1744
1679
1744
1905
2032
2064
1958
1775
1578
1485
1526
1679
1837
1919
1907
1767
1575
1439
1447
1586
1763
1895
1903
1787
1609
1461
1425
1520
1693
1836
1889
1825
1664
1461
1360
1427
1620
1810
1931
1909
1778
1586
1451
1445
1567
1733
1870
1904
1817
1648
1502
1497
1631
1823
1985
2053
1982
1838
1669
1600
1646
1808
1986
2087
2053
1907
1712
1584
1584
1691
1854
1973
1977
1855
1654
1472
1454
1581
1775
1902
1948
1883
1738
1563
1479
1527
1693
1859
1953
1915
1776
1584
1465
1479
1609
1788
1917
1923
1814
1630
1470
1438
1516
1713
1875
1942
1885
1714
1505
1392
1449
1623
1801
1916
1915
1804
1655
1582
1622
1797
2025
2253
2386
2384
2284
2156
2091
2115
2189
2207
2115
1856
1504
1169
999
1021
1200
1410
1557
1615
1555
1430
1364
1435
1597
1777
1911
1933
1831
1655
1485
1445
1527
1697
1839
1904
1865
1728
1567
1499
1567
1737
1918
2017
1991
1854
1661
1529
1534
1680
1853
1988
2017
1933
1762
1611
1602
1723
1913
2085
2151
2096
1931
1761
1678
1722
1887
2073
2182
2176
2065
1898
1798
1827
1963
2143
2289
2337
2247
2096
1959
1936
2032
2222
2390
2467
2403
2241
2058
1965
2036
2212
2386
2495
2465
2325
2129
1993
1982
2095
2243
2347
2314
2177
1985
1815
1764
1830
1968
2103
2139
2046
1874
1693
1601
1631
1783
1931
2007
1971
1821
1616
1472
1482
1605
1766
1911
1951
1856
1672
1523
1489
1584
1755
1904
1966
1888
1712
1520
1444
1493
1664
1841
1955
1939
1813
1633
1505
1515
1648
1821
1953
1975
1872
1709
1565
1535
1654
1839
2003
2079
2011
1860
1680
1605
1693
1871
2059
2163
2145
1999
1791
1654
1659
1781
1939
2078
2094
1974
1798
1619
1577
1661
1822
1968
2034
1986
1838
1663
1584
1635
1795
1965
2064
2032
1891
1703
1573
1583
1710
1891
2009
2019
1937
1783
1647
1611
1703
1878
2027
2095
2032
1871
1685
1598
1651
1805
1969
2070
2045
1904
1721
1622
1670
1850
2083
2290
2409
2410
2350
2287
2304
2405
2546
2652
2625
2431
2094
1677
1406
1326
1424
1585
1710
1730
1655
1535
1477
1535
1710
1898
2022
2064
1969
1799
1639
1602
1693
1856
2021
2100
2047
1899
1729
1646
1706
1881
2071
2173
2145
2013
1834
1702
1716
1861
2061
2203
2224
2112
1957
1817
1789
1877
2064
2229
2305
2247
2099
1927
1846
1902
2069
2270
2387
2386
2273
2105
1990
2008
2145
2332
2480
2528
2454
2288
2146
2128
2245
2435
2608
2685
2624
2466
2293
2221
2283
2442
2599
2703
2695
2559
2368
2224
2203
2300
2447
2545
2534
2401
2176
1968
1892
1955
2112
2241
2283
2206
2027
1819
1702
1727
1861
2010
2113
2099
1963
1767
1631
1609
1719
1888
2017
2040
1926
1731
1586
1566
1648
1834
1985
2053
1989
1838
1647
1552
1587
1734
1904
2006
1991
1843
1667
1559
1570
1721
1904
2034
2055
1953
1797
1623
1600
1696
1895
2075
2157
2109
1959
1779
1695
1745
1906
2083
2195
2185
2074
1905
1777
1762
1863
2029
2141
2135
1999
1798
1614
1535
1615
1786
1963
2037
1982
1826
1636
1523
1565
1720
1891
2000
1971
1839
1663
1535
1535
1670
1843
1973
2000
1904
1721
1535
1488
1535
1749
1919
1983
1921
1758
1571
1468
1514
1673
1840
1941
1919
1779
1585
1456
1469
1613
1839
2063
2187
2203
2169
2158
2256
2463
2723
2927
2980
2848
2559
2217
1887
1664
1600
1605
1616
1554
1419
1264
1157
1214
1423
1681
1870
1927
1851
1680
1511
1462
1535
1728
1885
1955
1901
1742
1555
1449
1499
1671
1859
1979
1981
1872
1696
1563
1573
1699
1888
2033
2078
1995
1837
1682
1647
1730
1920
2095
2165
2109
1954
1780
1692
1733
1881
2083
2228
2244
2148
1984
1865
1872
2005
2199
2351
2393
2309
2141
1983
1920
2007
2206
2403
2503
2463
2320
2132
2024
2062
2186
2349
2445
2419
2277
2075
1918
1890
1986
2156
2257
2256
2118
1888
1663
1587
1650
1795
1923
1959
1863
1670
1444
1317
1322
1440
1606
1707
1680
1534
1333
1175
1147
1245
1415
1535
1574
1470
1286
1109
1060
1146
1323
1489
1583
1520
1362
1179
1072
1102
1257
1440
1535
1501
1391
1215
1089
1088
1212
1394
1535
1566
1442
1240
1078
1042
1141
1335
1513
1614
1589
1463
1298
1216
1281
1439
1630
1755
1752
1638
1457
1335
1328
1455
1636
1773
1785
1662
1471
1278
1200
1264
1406
1569
1661
1623
1479
1299
1205
1249
1408
1605
1715
1709
1579
1392
1278
1282
1416
1604
1744
1779
1683
1503
1333
1288
1377
1559
1727
1808
1755
1616
1435
1331
1374
1533
1728
1840
1826
1685
1471
1330
1329
1454
1647
1792
1859
1821
1707
1610
1655
1855
2192
2533
2777
2834
2716
2496
2293
2174
2115
2034
1893
1674
1404
1154
995
1017
1193
1475
1719
1840
1835
1712
1583
1535
1631
1808
1968
2061
2022
1873
1668
1586
1649
1830
2029
2170
2177
2060
1872
1729
1744
1873
2063
2223
2267
2183
2021
1871
1826
1920
2077
2240
2319
2287
2143
1974
1889
1936
2097
2273
2395
2415
2310
2146
2017
2018
2128
2305
2486
2554
2494
2353
2205
2167
2261
2461
2643
2749
2707
2559
2415
2330
2378
2544
2739
2866
2866
2752
2559
2429
2413
2513
2683
2810
2832
2723
2518
2304
2204
2240
2368
2483
2530
2449
2274
2061
1903
1861
1979
2147
2258
2244
2112
1906
1749
1712
1792
1954
2084
2109
2003
1828
1659
1600
1679
1840
1997
2069
2014
1853
1655
1552
1596
1744
1920
2032
2027
1915
1725
1582
1535
1651
1859
2032
2087
1987
1812
1631
1565
1635
1811
1986
2084
2058
1929
1759
1661
1682
1845
2022
2151
2167
2064
1894
1769
1771
1900
2086
2224
2256
2165
1979
1789
1713
1776
1936
2089
2134
2075
1935
1765
1673
1712
1871
2054
2176
2176
2047
1851
1698
1693
1808
1996
2151
2192
2109
1947
1776
1712
1776
1951
2117
2199
2157
2003
1803
1707
1733
1872
2060
2179
2183
2074
1875
1708
1707
1827
2023
2173
2220
2142
1984
1841
1831
1947
2203
2476
2687
2758
2698
2543
2416
2387
2433
2471
2401
2176
1840
1483
1231
1168
1294
1507
1744
1908
1936
1855
1750
1735
1840
2019
2177
2269
2254
2127
1953
1856
1883
2021
2210
2350
2363
2251
2077
1934
1916
2030
2198
2343
2357
2267
2131
1986
1941
2025
2193
2357
2448
2417
2277
2094
1988
2022
2166
2335
2462
2477
2371
2203
2084
2090
2214
2401
2558
2621
2545
2386
2215
2139
2237
2442
2643
2767
2755
2629
2465
2373
2411
2559
2752
2889
2886
2767
2599
2461
2442
2544
2718
2863
2891
2795
2608
2401
2297
2315
2448
2592
2642
2559
2390
2176
2043
2055
2165
2312
2405
2352
2227
2032
1872
1825
1910
2080
2225
2268
2181
2001
1814
1730
1801
1951
2128
2223
2174
2003
1799
1675
1682
1805
1974
2099
2114
2000
1817
1638
1620
1748
1942
2105
2153
2075
1911
1730
1652
1711
1865
2021
2112
2080
1936
1750
1648
1677
1827
2011
2148
2159
2046
1869
1719
1706
1817
1998
2139
2168
2066
1891
1701
1647
1729
1907
2085
2162
2112
1948
1751
1646
1664
1808
1987
2113
2119
2005
1819
1667
1645
1747
1922
2085
2134
2064
1890
1717
1649
1714
1883
2047
2139
2087
1910
1723
1634
1682
1844
2035
2176
2181
2057
1864
1702
1679
1787
1957
2113
2165
2093
1934
1774
1728
1824
2033
2253
2411
2463
2428
2337
2289
2325
2432
2541
2559
2467
2206
1840
1511
1344
1349
1485
1658
1776
1777
1702
1616
1621
1744
1940
2125
2215
2190
2057
1874
1776
1808
1959
2139
2267
2282
2176
1995
1841
1818
1931
2113
2258
2303
2224
2065
1894
1840
1911
2090
2253
2329
2274
2143
1968
1872
1919
2080
2261
2386
2389
2284
2115
1975
1958
2070
2257
2417
2470
2387
2224
2053
1985
2057
2226
2389
2485
2463
2331
2160
2060
2085
2229
2386
2514
2544
2445
2279
2129
2107
2221
2412
2559
2618
2524
2347
2135
2034
2071
2224
2373
2443
2384
2219
2002
1858
1839
1946
2107
2215
2207
2073
1870
1707
1669
1761
1920
2033
2096
2020
1854
1674
1603
1661
1823
1984
2078
2045
1904
1712
1598
1618
1757
1935
2070
2076
1953
1769
1614
1574
1669
1847
2002
2065
1987
1835
1664
1598
1661
1833
1999
2106
2071
1906
1712
1622
1662
1814
2000
2149
2173
2076
1904
1733
1683
1767
1961
2138
2205
2145
1986
1814
1746
1792
1943
2103
2165
2110
1943
1741
1616
1629
1755
1931
2062
2065
1939
1757
1591
1535
1662
1847
2013
2080
2007
1845
1674
1598
1650
1803
1968
2080
2064
1936
1744
1623
1649
1793
1968
2097
2113
2001
1830
1659
1618
1708
1872
2005
2054
1962
1779
1600
1507
1568
1744
1946
2115
2167
2112
2021
2029
2166
2399
2631
2765
2747
2559
2271
1969
1744
1627
1623
1658
1658
1573
1407
1271
1253
1378
1621
1847
1984
1979
1856
1680
1568
1582
1713
1898
2033
2062
1953
1767
1600
1584
1717
1921
2109
2182
2120
1950
1776
1706
1765
1937
2124
2234
2215
2081
1884
1759
1770
1920
2127
2278
2315
2221
2043
1894
1855
1951
2133
2299
2369
2320
2182
2015
1937
1985
2139
2332
2479
2493
2375
2207
2103
2136
2293
2493
2640
2675
2578
2409
2255
2225
2319
2496
2662
2725
2640
2473
2291
2211
2256
2405
2559
2646
2605
2437
2223
2063
2023
2115
2256
2357
2347
2218
2000
1818
1759
1808
1965
2122
2181
2114
1946
1744
1647
1680
1831
1986
2079
2034
1889
1699
1564
1552
1662
1831
1967
1986
1903
1717
1564
1522
1622
1802
1963
2017
1933
1758
1552
1443
1495
1692
1903
2023
2009
1879
1693
1565
1571
1707
1882
2027
2059
1964
1797
1650
1621
1725
1917
2094
2175
2123
1968
1793
1725
1797
1949
2111
2196
2186
2054
1833
1666
1658
1766
1920
2027
2035
1917
1710
1531
1498
1599
1781
1935
1989
1922
1760
1564
1463
1499
1657
1823
1921
1882
1749
1567
1427
1426
1553
1725
1856
1866
1755
1577
1397
1341
1409
1589
1755
1833
1782
1619
1429
1327
1363
1505
1667
1791
1805
1716
1591
1535
1623
1857
2167
2439
2610
2642
2557
2431
2368
2379
2431
2416
2262
1955
1581
1223
1038
1037
1175
1388
1565
1614
1535
1399
1297
1313
1443
1642
1790
1835
1741
1556
1389
1365
1468
1661
1824
1904
1846
1693
1509
1424
1475
1652
1839
1947
1936
1812
1631
1511
1517
1649
1840
2016
2046
1967
1801
1644
1593
1683
1872
2034
2111
2064
1920
1749
1665
1712
1903
2102
2233
2224
2097
1952
1862
1901
2047
2256
2409
2448
2375
2230
2086
2047
2147
2330
2494
2582
2539
2397
2231
2150
2206
2358
2533
2638
2609
2463
2247
2090
2064
2165
2319
2434
2437
2313
2096
1856
1799
1872
2023
2161
2204
2125
1941
1735
1626
1653
1791
1946
2037
2000
1858
1666
1526
1535
1655
1835
1968
1995
1892
1707
1533
1487
1588
1747
1899
1966
1903
1739
1535
1461
1502
1658
1830
1946
1939
1808
1616
1453
1417
1560
1758
1913
1963
1881
1701
1535
1502
1609
1801
1973
2058
1995
1840
1655
1570
1631
1797
1989
2113
2106
1973
1790
1648
1646
1738
1890
2007
2015
1904
1711
1520
1454
1522
1702
1870
1945
1904
1737
1535
1427
1472
1638
1799
1905
1925
1815
1643
1511
1518
1648
1827
1968
1997
1902
1728
1578
1526
1613
1781
1941
2018
1978
1816
1630
1535
1610
1783
1953
2059
2030
1887
1678
1520
1506
1637
1840
2005
2078
2055
1989
1942
2011
2258
2559
2815
2925
2843
2613
2303
2030
1842
1745
1712
1693
1620
1470
1302
1203
1259
1450
1711
1906
1985
1919
1747
1585
1535
1616
1797
1958
2026
1969
1819
1637
1535
1584
1727
1902
2031
2053
1946
1773
1643
1617
1734
1926
2075
2119
2032
1868
1706
1657
1739
1920
2090
2175
2131
1990
1806
1712
1746
1895
2074
2201
2210
2097
1919
1793
1802
1932
2128
2291
2347
2269
2128
1985
1939
2029
2234
2436
2541
2512
2379
2220
2128
2169
2316
2485
2608
2596
2469
2275
2128
2099
2200
2371
2498
2512
2393
2199
2007
1915
1946
2089
2211
2257
2176
1979
1749
1602
1600
1713
1856
1962
1955
1830
1628
1462
1425
1521
1681
1797
1807
1703
1535
1371
1311
1379
1535
1697
1764
1712
1569
1376
1265
1291
1444
1635
1751
1739
1602
1406
1259
1244
1351
1535
1712
1766
1686
1517
1344
1270
1337
1535
1700
1787
1749
1600
1420
1328
1378
1553
1727
1860
1878
1759
1584
1448
1441
1562
1731
1878
1910
1807
1629
1439
1360
1423
1591
1744
1808
1741
1583
1400
1310
1342
1456
1641
1787
1795
1684
1485
1333
1309
1419
1611
1776
1826
1743
1582
1389
1317
1390
1571
1741
1822
1781
1635
1442
1342
1364
1503
1680
1791
1776
1635
1434
1271
1238
1360
1525
1680
1746
1695
1535
1392
1379
1519
1774
2026
2208
2256
2176
2010
1874
1844
1933
2002
1985
1810
1499
1168
924
863
978
1215
1431
1565
1535
1456
1319
1286
1373
1535
1721
1801
1779
1651
1486
1403
1444
1602
1781
1910
1903
1786
1615
1477
1471
1591
1776
1936
1989
1906
1750
1581
1515
1598
1776
1950
2038
2005
1865
1681
1584
1621
1779
1959
2069
2112
2017
1848
1724
1727
1856
2053
2222
2271
2196
2038
1871
1829
1920
2119
2305
2407
2390
2259
2089
1989
2021
2176
2366
2503
2528
2418
2241
2099
2069
2171
2354
2493
2514
2436
2272
2096
2011
2059
2195
2338
2400
2333
2160
1937
1791
1778
1897
2047
2149
2132
1996
1799
1647
1602
1678
1840
1978
2029
1947
1773
1600
1523
1600
1776
1931
1985
1919
1793
1634
1535
1584
1743
1913
2030
2019
1891
1688
1535
1506
1612
1787
1947
2007
1936
1779
1616
1552
1617
1783
1946
2033
1984
1837
1658
1535
1575
1712
1891
2058
2112
2027
1856
1713
1699
1816
2006
2166
2221
2133
1956
1776
1711
1765
1910
2064
2128
2066
1887
1683
1573
1605
1767
1947
2064
2045
1916
1733
1588
1535
1668
1871
2039
2099
2021
1842
1667
1594
1664
1823
1988
2086
2054
1903
1709
1589
1602
1744
1926
2071
2081
1945
1743
1597
1581
1687
1862
2010
2064
1981
1783
1590
1526
1617
1827
2038
2181
2197
2131
2032
2013
2126
2336
2538
2642
2605
2416
2147
1867
1658
1573
1616
1697
1712
1639
1503
1387
1394
1531
1775
1987
2112
2091
1962
1781
1657
1654
1817
2010
2145
2149
2023
1851
1717
1712
1836
2006
2163
2211
2131
1968
1795
1729
1795
1968
2144
2241
2210
2065
1895
1787
1802
1931
2117
2262
2297
2208
2030
1858
1855
1980
2177
2339
2399
2331
2162
1969
1903
1986
2179
2379
2495
2485
2365
2191
2083
2099
2243
2422
2559
2599
2496
2336
2196
2166
2269
2461
2622
2670
2587
2417
2217
2148
2220
2377
2525
2602
2539
2365
2149
1994
1968
2064
2210
2311
2294
2157
1951
1785
1746
1835
1988
2130
2179
2091
1895
1702
1620
1675
1831
1990
2076
2031
1894
1701
1563
1570
1739
1923
2057
2069
1955
1775
1623
1600
1703
1880
2028
2094
2023
1859
1680
1611
1670
1834
1991
2095
2071
1921
1737
1618
1632
1776
1950
2093
2110
2003
1841
1702
1694
1801
1975
2113
2185
2127
1979
1823
1761
1838
2006
2171
2255
2204
2031
1826
1699
1687
1814
1978
2111
2123
2000
1801
1629
1590
1680
1849
1985
2047
1985
1825
1647
1567
1619
1789
1956
2060
2032
1873
1670
1530
1560
1719
1914
2055
2077
1968
1792
1639
1600
1694
1872
2014
2074
1998
1839
1647
1552
1600
1751
1919
2024
2003
1885
1723
1632
1699
1872
2129
2338
2441
2448
2354
2225
2188
2283
2419
2496
2451
2234
1882
1520
1301
1262
1376
1569
1733
1780
1718
1588
1509
1553
1699
1888
2032
2064
1969
1795
1648
1614
1714
1901
2064
2116
2061
1902
1719
1634
1671
1854
2039
2153
2127
1985
1807
1668
1680
1819
2031
2187
2219
2127
1949
1798
1770
1872
2059
2224
2303
2252
2111
1936
1859
1914
2079
2258
2385
2387
2277
2110
1996
2012
2155
2335
2478
2497
2406
2237
2091
2055
2154
2355
2536
2621
2581
2429
2241
2171
2235
2389
2559
2659
2618
2459
2262
2122
2112
2225
2384
2485
2478
2347
2143
1950
1883
1944
2111
2244
2288
2199
2017
1826
1737
1777
1927
2085
2185
2160
2015
1819
1671
1647
1777
1946
2090
2142
2054
1884
1729
1687
1770
1936
2093
2134
2071
1911
1743
1655
1698
1867
2037
2149
2125
1982
1798
1673
1677
1805
1984
2117
2139
2039
1871
1711
1669
1761
1919
2107
2178
2127
1971
1798
1726
1782
1929
2113
2256
2277
2165
1997
1875
1896
2034
2222
2355
2375
2266
2082
1902
1840
1916
2077
2219
2269
2192
2012
1815
1713
1751
1905
2087
2189
2170
2039
1858
1735
1737
1857
2038
2192
2226
2128
1924
1742
1699
1809
2000
2175
2242
2183
2030
1842
1751
1797
1963
2142
2250
2237
2097
1906
1776
1777
1903
2075
2193
2217
2128
1968
1843
1856
2006
2259
2512
2702
2768
2743
2672
2663
2732
2864
2965
2953
2777
2422
2016
1691
1557
1597
1728
1855
1904
1855
1733
1617
1614
1736
1934
2100
2165
2099
1943
1744
1645
1680
1853
2039
2165
2160
2028
1842
1712
1712
1843
2034
2179
2218
2117
1937
1776
1743
1827
1985
2164
2258
2231
2104
1930
1842
1885
2034
2218
2336
2327
2211
2032
1913
1919
2055
2243
2391
2432
2352
2187
2032
1984
2067
2262
2433
2526
2486
2349
2184
2106
2155
2304
2486
2617
2610
2479
2293
2160
2130
2237
2431
2595
2639
2541
2374
2214
2153
2215
2363
2496
2544
2464
2286
2067
1933
1934
2061
2208
2290
2239
2081
1871
1735
1728
1845
2010
2135
2145
2034
1859
1693
1627
1706
1872
2032
2110
2039
1876
1671
1587
1651
1849
2023
2145
2129
1997
1801
1658
1655
1788
1974
2123
2153
2045
1885
1730
1680
1760
1936
2107
2188
2141
1983
1789
1685
1722
1882
2064
2176
2163
2037
1866
1741
1754
1890
2083
2219
2286
2224
2083
1927
1886
1975
2169
2332
2416
2359
2211
2029
1915
1936
2077
2227
2349
2333
2189
1975
1808
1776
1882
2055
2186
2203
2097
1935
1763
1703
1786
1960
2128
2180
2097
1957
1791
1702
1735
1891
2081
2205
2203
2085
1887
1743
1733
1856
2032
2192
2234
2144
1975
1805
1730
1806
1983
2153
2236
2179
2010
1808
1696
1727
1890
2096
2242
2289
2230
2135
2111
2227
2451
2789
3093
3220
3151
2918
2651
2450
2339
2295
2240
2130
1941
1712
1488
1392
1456
1649
1882
2044
2085
1986
1812
1667
1669
1802
1975
2115
2155
2063
1892
1738
1691
1780
1957
2127
2209
2143
1973
1797
1717
1758
1909
2094
2214
2211
2096
1915
1783
1777
1899
2083
2231
2283
2194
2025
1865
1811
1895
2089
2256
2338
2289
2165
