1762
1807
1938
2099
2154
2086
1937
1794
1733
1790
1966
2221
2415
2486
2458
2356
2249
2211
2257
2355
2384
2263
2006
1679
1367
1198
1185
1333
1515
1609
1569
1452
1319
1263
1331
1525
1791
1993
2046
1983
1858
1750
1721
1792
1963
2134
2190
2111
1957
1810
1734
1758
1923
2127
2240
2205
2077
1915
1818
1825
1926
2121
2247
2258
2149
1982
1858
1837
1913
2070
2208
2240
2181
2033
1915
1850
1886
2035
2217
2297
2243
2092
1914
1814
1841
1981
2171
2294
2283
2167
2005
1872
1846
1945
2119
2271
2320
2253
2114
1964
1897
1949
2111
2275
2361
2320
2192
2043
1951
1968
2111
2304
2435
2442
2333
2180
2047
2011
2096
2275
2435
2477
2391
2240
2086
2002
2032
2163
2317
2384
2338
2210
2064
1951
1949
2064
2225
2326
2307
2183
2009
1869
1831
1920
2087
2235
2277
2197
2026
1834
1731
1757
1893
2055
2139
2096
1955
1803
1705
1717
1841
2016
2155
2139
2015
1847
1712
1687
1781
1935
2080
2122
2042
1883
1733
1662
1726
1878
2069
2160
2112
1971
1813
1726
1730
1856
2034
2160
2128
1997
1840
1715
1680
1782
1968
2127
2151
2057
1908
1733
1659
1713
1879
2047
2127
2077
1947
1792
1691
1706
1841
2035
2167
2142
2011
1853
1717
1701
1799
1971
2128
2151
2054
1899
1758
1687
1745
1900
2068
2135
2069
1921
1792
1723
1746
1875
2061
2166
2146
2025
1871
1754
1744
1850
2017
2177
2221
2149
1968
1774
1669
1697
1849
2015
2095
2027
1901
1746
1660
1671
1798
1980
2098
2092
1955
1776
1636
1600
1687
1872
2031
2069
1986
1835
1673
1602
1648
1799
1990
2093
2058
1916
1742
1626
1626
1743
1900
1999
1973
1851
1668
1531
1526
1671
1908
2142
2242
2233
2149
2071
2065
2133
2274
2401
2379
2182
1856
1499
1219
1103
1149
1302
1426
1434
1354
1243
1168
1178
1305
1528
1763
1859
1835
1729
1614
1591
1661
1833
2020
2118
2069
1920
1757
1651
1655
1771
1966
2095
2081
1954
1804
1685
1667
1771
1941
2097
2139
2061
1906
1762
1702
1741
1913
2090
2159
2102
1950
1782
1690
1710
1845
2035
2162
2149
2031
1872
1745
1719
1823
2007
2169
2198
2125
1987
1843
1773
1817
1965
2142
2237
2191
2060
1889
1773
1790
1957
2166
2295
2305
2199
2038
1915
1872
1963
2151
2319
2359
2275
2128
1986
1923
1985
2143
2307
2380
2320
2185
2030
1923
1941
2075
2249
2355
2326
2211
2065
1950
1908
1951
2131
2271
2289
2185
2017
1872
1808
1851
1993
2155
2217
2151
1999
1819
1712
1715
1833
2004
2122
2099
1951
1755
1634
1620
1730
1914
2062
2083
1993
1826
1664
1596
1651
1818
1993
2070
2002
1841
1678
1584
1611
1767
1965
2087
2059
1923
1763
1639
1617
1716
1898
2057
2080
1962
1818
1675
1614
1671
1831
2000
2095
2059
1923
1763
1653
1666
1823
1985
2109
2093
1970
1798
1643
1616
1728
1917
2075
2093
1981
1824
1685
1631
1685
1837
1995
2047
1979
1831
1680
1601
1630
1775
1950
2066
2059
1931
1750
1606
1594
1725
1909
2073
2099
1999
1839
1695
1646
1728
1876
2053
2134
2079
1922
1741
1633
1648
1776
1941
2055
2014
1846
1693
1559
1535
1647
1830
1975
1999
1907
1750
1617
1558
1618
1793
1951
2006
1936
1787
1631
1514
1527
1676
1856
1963
1934
1810
1659
1534
1513
1621
1804
1946
1958
1854
1680
1505
1430
1499
1707
1936
2071
2065
1994
1907
1885
1967
2151
2351
2448
2388
2187
1897
1616
1409
1296
1315
1351
1323
1227
1092
983
954
1061
1269
1472
1600
1600
1535
1453
1410
1477
1659
1857
1985
1975
1856
1708
1607
1601
1712
1875
2033
2062
1936
1759
1612
1568
1648
1830
2026
2109
2046
1893
1728
1633
1659
1811
1990
2109
2092
1968
1802
1671
1653
1764
1936
2079
2093
2003
1850
1712
1654
1713
1874
2026
2087
2045
1934
1798
1727
1773
1932
2102
2187
2133
1983
1836
1743
1764
1879
2068
2214
2230
2129
1977
1840
1792
1863
2043
2225
2288
2240
2105
1949
1871
1911
2062
2250
2365
2352
2235
2086
1969
1954
2059
2231
2367
2373
2255
2083
1935
1872
1929
2067
2219
2281
2221
2069
1904
1797
1805
1936
2118
2214
2187
2052
1869
1728
1702
1794
1950
2073
2083
1994
1855
1731
1690
1776
1947
2109
2163
2085
1918
1749
1659
1681
1832
2007
2112
2093
1968
1807
1677
1672
1790
1967
2128
2134
2000
1839
1695
1674
1763
1951
2142
2205
2144
1999
1841
1750
1783
1928
2118
2224
2199
2081
1923
1814
1791
1885
2065
2206
2226
2127
1954
1825
1783
1870
2032
2197
2244
2164
2017
1860
1776
1818
1963
2151
2262
2241
2115
1950
1819
1786
1890
2065
2211
2233
2127
1967
1817
1777
1871
2057
2223
2266
2195
2036
1886
1809
1862
2027
2224
2331
2301
2171
2002
1879
1859
1955
2132
2256
2254
2160
1998
1853
1792
1870
2026
2183
2223
2138
1979
1828
1739
1775
1934
2115
2215
2192
2046
1872
1738
1712
1814
1995
2146
2169
2076
1917
1773
1722
1793
1954
2142
2204
2141
1977
1801
1703
1725
1860
2037
2139
2123
2025
1909
1875
1957
2167
2442
2666
2737
2641
2455
2275
2144
2086
2084
2059
1926
1687
1437
1223
1120
1165
1350
1565
1697
1700
1614
1498
1459
1535
1735
1981
2174
2223
2141
1998
1869
1829
1902
2066
2229
2275
2193
2043
1881
1792
1840
2007
2203
2306
2288
2167
2000
1874
1859
1982
2173
2325
2342
2229
2059
1903
1855
1929
2111
2269
2317
2255
2122
1968
1895
1954
2093
2269
2367
2324
2185
2015
1914
1917
2042
2215
2334
2343
2256
2118
1984
1930
2002
2181
2347
2394
2326
2191
2032
1968
2023
2191
2380
2475
2430
2291
2131
2021
2023
2142
2329
2477
2486
2381
2222
2096
2064
2139
2304
2465
2527
2457
2295
2126
2022
2034
2182
2367
2463
2417
2279
2110
1995
1989
2098
2258
2365
2345
2208
2024
1857
1811
1895
2062
2218
2256
2191
2011
1840
1759
1794
1933
2106
2189
2132
1984
1814
1694
1695
1818
1998
2127
2127
2005
1840
1696
1650
1727
1905
2075
2134
2082
1936
1791
1712
1739
1890
2043
2123
2081
1952
1807
1715
1733
1861
2032
2160
2164
2055
1875
1743
1712
1795
1971
2128
2160
2078
1918
1754
1673
1734
1869
2057
2159
2119
1976
1821
1715
1722
1840
1995
2112
2107
1989
1831
1698
1675
1771
1947
2098
2130
2039
1874
1728
1648
1667
1835
2037
2164
2127
1985
1830
1724
1744
1871
2043
2160
2165
2071
1914
1774
1739
1832
2000
2157
2192
2101
1936
1783
1713
1770
1917
2075
2145
2091
1939
1761
1647
1649
1786
1970
2096
2094
1987
1815
1661
1605
1683
1840
1998
2047
1969
1808
1665
1613
1678
1833
2007
2101
2045
1904
1737
1611
1609
1726
1879
1985
1975
1872
1724
1609
1621
1772
2001
2219
2320
2304
2217
2125
2079
2111
2224
2331
2320
2141
1837
1474
1200
1094
1165
1345
1488
1520
1431
1307
1184
1195
1351
1589
1812
1924
1899
1799
1699
1663
1728
1875
2063
2145
2093
1936
1792
1699
1719
1843
2019
2158
2157
2032
1877
1732
1707
1821
2003
2170
2209
2119
1969
1800
1724
1760
1905
2091
2187
2161
2043
1898
1799
1825
1965
2147
2267
2250
2122
1939
1807
1791
1898
2075
2230
2274
2194
2045
1891
1812
1872
2053
2229
2319
2278
2138
1963
1867
1873
1997
2195
2347
2368
2279
2130
1990
1946
2042
2223
2383
2430
2342
2186
2027
1951
2006
2191
2371
2461
2422
2291
2128
2026
2030
2148
2331
2455
2447
2317
2142
1999
1962
2041
2211
2353
2368
2256
2079
1911
1839
1889
2047
2213
2278
2213
2047
1866
1759
1775
1894
2064
2184
2167
2046
1877
1758
1712
1798
1978
2140
2175
2078
1909
1746
1680
1740
1902
2063
2136
2094
1968
1817
1724
1729
1860
2043
2169
2154
2021
1840
1702
1673
1768
1943
2112
2169
2101
1952
1792
1712
1753
1906
2083
2153
2107
1967
1808
1713
1738
1874
2062
2192
2182
2055
1895
1773
1747
1838
2001
2141
2174
2096
1918
1754
1695
1755
1935
2119
2190
2126
1971
1817
1723
1742
1875
2067
2183
2171
2047
1874
1738
1717
1831
2005
2171
2207
2128
1974
1815
1733
1779
1938
2125
2213
2171
2046
1903
1789
1804
1936
2110
2205
2192
2077
1907
1776
1740
1801
1981
2125
2143
2044
1887
1742
1679
1729
1894
2082
2150
2096
1953
1792
1695
1711
1839
2000
2105
2076
1964
1814
1686
1661
1745
1919
2078
2128
2039
1872
1723
1637
1673
1818
1970
2046
2032
1973
1897
1871
1963
2160
2389
2540
2537
2411
2223
2039
1909
1853
1859
1839
1710
1503
1294
1133
1084
1168
1360
1569
1689
1681
1584
1466
1427
1512
1706
1936
2107
2119
2026
1889
1773
1742
1847
2006
2160
2191
2101
1936
1799
1745
1797
1951
2128
2210
2170
2030
1863
1771
1795
1930
2115
2243
2233
2098
1904
1764
1754
1865
2038
2192
2223
2144
1993
1856
1806
1871
2032
2206
2283
2224
2071
1895
1792
1821
1972
2171
2282
2261
2162
1997
1878
1862
1967
2147
2295
2334
2265
2117
1956
1899
1968
2155
2349
2433
2379
2230
2063
1951
1943
2078
2276
2419
2429
2321
2159
2032
2021
2133
2298
2422
2427
2317
2147
1979
1907
1979
2157
2329
2391
2330
2186
2011
1906
1902
2013
2187
2305
2293
2173
1986
1841
1798
1891
2023
2148
2183
2097
1933
1793
1744
1808
1968
2145
2220
2147
1981
1808
1697
1707
1840
2028
2147
2114
1984
1821
1697
1676
1776
1955
2125
2159
2054
1889
1737
1682
1759
1917
2074
2141
2098
1963
1802
1680
1680
1807
1999
2128
2121
1998
1826
1701
1687
1794
1978
2128
2144
2032
1862
1727
1683
1764
1931
2112
2191
2115
1946
1777
1680
1702
1846
2039
2163
2158
2019
1845
1719
1703
1804
1974
2131
2171
2097
1931
1783
1715
1765
1918
2086
2162
2128
1994
1835
1749
1787
1919
2102
2221
2205
2096
1935
1810
1791
1887
2053
2161
2158
2058
1895
1749
1695
1753
1900
2054
2113
2063
1920
1776
1683
1697
1826
1993
2111
2096
1975
1799
1661
1647
1744
1916
2065
2092
1994
1827
1680
1625
1683
1835
2017
2091
2025
1875
1729
1642
1654
1777
1946
2046
2032
1919
1783
1691
1729
1909
2157
2357
2433
2384
2256
2103
2021
2032
2112
2143
2033
1808
1498
1243
1091
1108
1279
1498
1635
1619
1517
1396
1329
1370
1527
1786
1968
2020
1961
1831
1728
1693
1765
1936
2108
2167
2108
1954
1808
1744
1771
1923
2107
2195
2165
2032
1843
1722
1728
1853
2032
2175
2179
2076
1915
1789
1749
1826
1991
2171
2240
2167
2003
1850
1774
1808
1946
2128
2224
2192
2059
1895
1793
1805
1920
2105
2240
2255
2153
1989
1857
1824
1905
2086
2253
2330
2274
2116
1952
1872
1920
2091
2287
2398
2384
2255
2083
1937
1922
2042
2230
2366
2379
2288
2129
1997
1966
2033
2197
2365
2433
2369
2218
2043
1954
1979
2119
2289
2391
2357
2196
2023
1902
1881
1968
2126
2255
2254
2145
1975
1821
1767
1843
2003
2174
2223
2157
1986
1834
1754
1787
1920
2095
2181
2141
2000
1831
1713
1711
1808
1974
2122
2134
2031
1871
1732
1707
1789
1957
2119
2188
2107
1931
1744
1660
1693
1849
2031
2129
2111
1975
1791
1681
1705
1839
2018
2160
2169
2071
1917
1781
1743
1792
1936
2095
2143
2071
1934
1789
1728
1790
1936
2102
2192
2157
2005
1851
1742
1728
1823
1997
2119
2151
2062
1895
1758
1729
1826
2000
2154
2165
2073
1910
1744
1661
1703
1866
2069
2189
2159
2007
1842
1735
1741
1870
2047
2188
2192
2081
1897
1757
1731
1814
1985
2147
2203
2126
1950
1786
1688
1720
1873
2065
2169
2134
1996
1823
1709
1700
1814
2002
2158
2165
2041
1867
1712
1669
1744
1926
2109
2160
2082
1925
1776
1664
1677
1817
1996
2122
2110
1968
1791
1654
1623
1727
1907
2032
2058
1956
1814
1712
1730
1872
2096
2320
2447
2419
2288
2127
2006
2000
2080
2136
2097
1932
1649
1360
1184
1160
1287
1490
1652
1682
1614
1488
1399
1389
1495
1721
1946
2046
2007
1887
1749
1680
1725
1898
2102
2206
2176
2043
1872
1744
1728
1845
2037
2194
2219
2107
1937
1799
1754
1829
1994
2155
2209
2146
2000
1858
1786
1826
1972
2149
2243
2197
2079
1904
1790
1802
1919
2096
2225
2253
2158
1991
1872
1844
1923
2110
2262
2307
2224
2064
1901
1834
1887
2042
2223
2306
2277
2128
1943
1853
1887
2028
2231
2381
2386
2256
2078
1943
1930
2045
2218
2382
2445
2382
2224
2066
1991
2023
2154
2308
2406
2375
2246
2085
1983
1995
2117
2298
2430
2416
2288
2109
1956
1904
1956
2097
2256
2306
2225
2061
1891
1811
1859
2004
2190
2275
2226
2064
1871
1751
1761
1878
2059
2182
2170
2058
1881
1751
1722
1801
1967
2131
2176
2096
1935
1775
1697
1744
1909
2087
2153
2084
1963
1815
1708
1721
1851
2058
2187
2183
2060
1887
1766
1759
1841
2015
2177
2213
2121
1949
1779
1707
1745
1900
2085
2186
2160
2029
1862
1743
1731
1843
2000
2143
2160
2046
1874
1744
1727
1823
2003
2179
2210
2112
1947
1806
1741
1777
1933
2118
2198
2131
1971
1810
1710
1731
1851
2042
2182
2194
2089
1923
1785
1744
1821
1990
2160
2210
2138
1984
1826
1743
1792
1967
2161
2254
2198
2046
1865
1760
1754
1867
2045
2167
2160
2032
1871
1728
1690
1766
1921
2087
2128
2059
1901
1734
1664
1721
1877
2058
2143
2103
1947
1783
1684
1696
1815
1983
2110
2112
2027
1844
1703
1668
1755
1936
2092
2112
2002
1838
1681
1615
1693
1890
2131
2282
2269
2162
2035
1968
2011
2156
2330
2426
2356
2135
1853
1587
1425
1394
1473
1584
1615
1553
1424
1300
1267
1360
1571
1787
1901
1881
1781
1649
1597
1629
1773
2005
2173
2189
2080
1911
1783
1744
1821
1989
2158
2206
2129
1981
1835
1750
1795
1947
2125
2183
2128
2000
1859
1767
1776
1907
2094
2217
2209
2096
1934
1811
1776
1856
2026
2191
2229
2147
2000
1862
1798
1846
2000
2187
2256
2195
2047
1895
1809
1840
1982
2176
2303
2277
2145
1968
1827
1810
1936
2149
2337
2383
2294
2129
1968
1895
1935
2103
2294
2385
2345
2202
2039
1939
1962
2103
2270
2379
2379
2287
2128
2007
1978
2045
2204
2349
2378
2287
2125
1973
1910
1959
2112
2273
2332
2279
2128
1959
1851
1853
1969
2134
2243
2224
2096
1921
1777
1744
1849
2038
2191
2207
2093
1907
1767
1713
1778
1919
2082
2164
2123
1987
1830
1728
1735
1863
2021
2147
2138
2000
1846
1742
1722
1809
1983
2141
2181
2080
1911
1776
1717
1776
1942
2113
2190
2133
1979
1822
1726
1732
1851
2031
2161
2145
2015
1850
1725
1712
1822
1990
2128
2159
2077
1923
1781
1697
1742
1911
2097
2192
2141
1981
1803
1691
1705
1831
2006
2131
2125
2003
1838
1711
1671
1760
1963
2151
2194
2107
1943
1795
1729
1773
1926
2094
2167
2115
1969
1815
1728
1753
1893
2086
2194
2171
2046
1883
1773
1762
1860
2037
2192
2221
2125
1950
1787
1706
1741
1894
2067
2145
2083
1930
1757
1661
1678
1808
1988
2112
2105
1979
1809
1667
1638
1743
1923
2084
2119
2023
1856
1709
1649
1712
1873
2053
2132
2079
1932
1759
1651
1661
1777
1985
2118
2110
1979
1809
1698
1709
1828
2038
2250
2340
2315
2222
2110
2029
2041
2159
2256
2226
2032
1739
1439
1248
1226
1338
1535
1693
1709
1616
1471
1355
1359
1501
1743
1949
2030
1983
1870
1753
1723
1801
1971
2148
2221
2155
1998
1824
1739
1758
1893
2090
2207
2192
2077
1904
1789
1782
1885
2095
2243
2271
2176
2010
1849
1791
1860
2018
2193
2272
2221
2073
1906
1805
1821
1966
2144
2266
2256
2131
1968
1842
1841
1942
2112
2256
2285
2197
2034
1867
1782
1841
2000
2208
2304
2269
2129
1963
1862
1872
2009
2210
2331
2323
2211
2062
1940
1923
2014
2197
2362
2405
2313
2151
2000
1941
2014
2165
2334
2398
2327
2174
2015
1940
1983
2129
2307
2416
2409
2281
2089
1934
1903
1986
2156
2290
2309
2211
2055
1887
1823
1857
2000
2170
2233
2178
2023
1859
1769
1787
1931
2113
2199
2159
2032
1874
1761
1730
1808
1983
2139
2179
2101
1943
1801
1749
1822
1965
2130
2193
2113
1956
1799
1709
1712
1840
2047
2192
2183
2037
1883
1769
1775
1887
2065
2206
2215
2098
1921
1775
1711
1768
1943
2127
2194
2135
1985
1839
1751
1782
1922
2099
2201
2176
2042
1877
1764
1743
1846
2031
2182
2191
2086
1920
1770
1712
1778
1949
2128
2203
2141
1979
1818
1726
1747
1889
2080
2186
2162
2039
1874
1751
1733
1837
2004
2153
2175
2090
1936
1814
1774
1847
2009
2176
2243
2183
2023
1851
1759
1794
1933
2111
2199
2175
2033
1853
1725
1708
1819
2005
2154
2156
2042
1887
1739
1677
1737
1894
2078
2150
2082
1918
1744
1648
1668
1802
1980
2103
2096
1989
1840
1729
1715
1834
2007
2131
2127
2002
1838
1706
1666
1739
1910
2070
2115
2032
1879
1728
1621
1664
1860
2102
2267
2304
2235
2118
2030
2035
2147
2301
2399
2353
2163
1855
1554
1344
1295
1394
1553
1639
1611
1500
1374
1323
1385
1573
1781
1934
1946
1855
1731
1657
1686
1819
2014
2172
2192
2096
1918
1777
1729
1799
1962
2128
2194
2128
1984
1840
1759
1806
1943
2137
2244
2226
2107
1943
1828
1823
1935
2117
2252
2255
2135
1968
1841
1807
1877
2072
2246
2309
2233
2087
1931
1838
1858
2005
2199
2304
2262
2128
1972
1863
1856
1973
2160
2304
2309
2192
2031
1905
1881
1972
2160
2322
2373
2293
2151
2000
1921
1968
2131
2326
2447
2430
2302
2122
2006
1988
2096
2273
2419
2423
2326
2186
2061
2003
2074
2225
2370
2416
2323
2171
2000
1915
1945
2090
2261
2357
2315
2174
1999
1883
1863
1949
2141
2270
2262
2136
1959
1791
1725
1775
1930
2097
2151
2096
1967
1843
1770
1802
1938
2112
2199
2171
2041
1873
1756
1738
1831
1999
2145
2161
2058
1882
1743
1694
1775
1938
2112
2171
2096
1931
1771
1683
1717
1877
2069
2172
2145
2011
1854
1727
1710
1808
1978
2108
2118
2022
1878
1761
1728
1807
1983
2156
2205
2145
1999
1838
1733
1755
1911
2112
2215
2176
2038
1869
1745
1729
1839
2011
2165
2177
2067
1889
1744
1711
1797
1940
2123
2183
2119
1956
1791
1713
1770
1930
2112
2207
2158
2013
1856
1744
1735
1853
2054
2206
2218
2111
1949
1809
1775
1851
2027
2201
2265
2197
2043
1893
1818
1846
1979
2143
2211
2169
2032
1863
1750
1747
1854
2015
2143
2160
2070
1905
1759
1705
1776
1950
2114
2155
2070
1897
1738
1677
1729
1885
2105
2213
2187
2059
1871
1744
1731
1850
2027
2153
2147
2034
1867
1709
1653
1714
1869
2065
2163
2133
2031
1938
1933
2031
2237
2443
2549
2514
2352
2123
1899
1755
1712
1732
1733
1661
1511
1345
1232
1221
1338
1535
1763
1867
1830
1714
1600
1553
1605
1787
1995
2128
2125
2003
1856
1756
1751
1872
2059
2188
2187
2073
1904
1764
1735
1837
2011
2176
2224
2147
1987
1825
1728
1754
1901
2086
2177
2146
2013
1841
1733
1747
1885
2074
2203
2211
2111
1942
1799
1753
1839
2005
2176
2229
2143
1967
1799
1733
1790
1957
2150
2256
2230
2096
1915
1788
1775
1902
2109
2255
2265
2166
1999
1859
1818
1886
2089
2255
2301
2227
2096
1954
1875
1930
2101
2286
2371
2317
2166
2015
1898
1874
1998
2187
2335
2354
2242
2064
1905
1875
1951
2123
2275
2310
2223
2065
1911
1833
1863
2000
2161
2239
2197
2064
1885
1744
1717
1821
2000
2143
2138
2021
1862
1718
1662
1731
1907
2084
2128
2055
1897
1735
1650
1680
1811
1979
2087
2067
1934
1767
1660
1664
1782
1986
2112
2094
1968
1797
1674
1653
1760
1944
2119
2163
2094
1934
1771
1683
1733
1879
2038
2112
2070
1935
1775
1664
1679
1805
1980
2112
2109
1997
1831
1694
1653
1727
1900
2071
2112
2018
1853
1693
1622
1673
1840
2023
2121
2087
1938
1763
1637
1621
1738
1904
2037
2053
1935
1765
1628
1600
1697
1879
2014
2062
1983
1840
1680
1605
1643
1773
1938
2036
2028
1904
1732
1616
1621
1753
1945
2084
2093
1967
1798
1651
1615
1702
1911
2070
2094
1995
1846
1706
1637
1679
1822
1984
2071
2031
1888
1711
1583
1578
1699
1875
2003
2000
1890
1702
1571
1535
1638
1840
1985
2021
1934
1779
1634
1562
1629
1792
1953
2028
1975
1829
1666
1552
1563
1695
1881
2003
1977
1831
1639
1478
1472
1615
1855
2073
2183
2161
2078
1981
1957
2032
2206
2359
2373
2227
1952
1636
1353
1201
1221
1360
1487
1515
1426
1294
1185
1179
1315
1519
1717
1811
1780
1697
1595
1563
1642
1830
2026
2113
2064
1919
1750
1651
1680
1830
2025
2160
2166
2054
1866
1713
1672
1760
1967
2139
2173
2093
1945
1812
1744
1791
1946
2124
2194
2124
1967
1808
1706
1727
1863
2047
2183
2192
2087
1922
1791
1755
1871
2026
2176
2208
2128
1973
1829
1776
1840
2000
2190
2283
2239
2099
1919
1831
1847
1974
2151
2268
2273
2173
2018
1898
1883
1987
2178
2342
2377
2286
2128
1972
1899
1942
2112
2301
2394
2345
2205
2034
1937
1959
2096
2263
2372
2347
2215
2035
1893
1847
1930
2099
2242
2283
2202
2029
1877
1794
1830
1968
2128
2187
2126
1961
1787
1705
1738
1863
2027
2143
2127
2003
1845
1712
1680
1749
1923
2081
2110
2018
1861
1707
1639
1696
1859
2034
2125
2082
1935
1761
1641
1650
1788
1959
2091
2083
1971
1807
1670
1650
1757
1940
2100
2140
2061
1898
1747
1689
1742
1892
2046
2109
2064
1935
1797
1722
1733
1865
2046
2167
2155
2025
1869
1728
1681
1770
1942
2096
2128
2045
1899
1755
1711
1770
1920
2103
2172
2116
1975
1804
1706
1732
1873
2079
2193
2171
2041
1877
1750
1742
1857
2045
2197
2222
2133
1982
1827
1774
1814
2002
2194
2292
2250
2117
1973
1881
1888
2018
2194
2313
2303
2179
2006
1869
1840
1930
2114
2260
2303
2214
2028
1883
1806
1861
2013
2167
2234
2189
2064
1906
1817
1843
1971
2157
2261
2243
2134
1963
1827
1803
1904
2086
2228
2250
2167
1995
1845
1807
1897
2064
2240
2306
2234
2086
1914
1809
1815
1935
2117
2250
2261
2183
2070
2010
2064
2233
2480
2684
2750
2663
2480
2283
2124
2034
2035
2037
1951
1782
1565
1366
1270
1305
1467
1696
1855
1881
1810
1709
1653
1713
1888
2142
2331
2361
2267
2112
1947
1871
1921
2096
2285
2368
2327
2214
2073
1981
2000
2143
2313
2419
2414
2302
2145
2015
2000
2096
2259
2407
2427
2320
2158
2000
1953
2032
2211
2389
2465
2407
2272
2105
1991
2006
2147
2320
2442
2421
2305
2135
2014
2008
2122
2299
2445
2475
2383
2225
2093
2042
2107
2273
2453
2545
2502
2351
2162
2047
2064
2203
2410
2546
2543
2439
2298
2186
2172
2265
2436
2589
2601
2493
2338
2193
2125
2186
2364
2531
2606
2535
2385
2227
2117
2128
2258
2435
2537
2507
2373
2193
2045
2000
2100
2277
2409
2423
2332
2171
2006
1949
2002
2157
2310
2362
2289
2128
1959
1859
1879
2030
2221
2320
2270
2123
1941
1822
1799
1904
2090
2241
2269
2180
2029
1882
1819
1853
1998
2187
2266
2211
2065
1890
1794
1815
1965
2130
2239
2207
2088
1931
1807
1777
1874
2045
2195
2235
2146
1984
1827
1763
1825
1989
2155
2218
2154
2011
1865
1777
1791
1923
2107
2222
2192
2058
1879
1766
1761
1867
2041
2176
2192
2079
1901
1755
1705
1767
1943
2122
2198
2131
1968
1785
1682
1712
1855
2038
2143
2121
1985
1837
1729
1723
1825
1991
2141
2153
2067
1917
1777
1725
1783
1953
2128
2200
2135
1986
1840
1757
1778
1918
2095
2179
2133
1991
1837
1714
1693
1771
1935
2097
2131
2031
1863
1703
1643
1705
1872
2032
2096
2023
1888
1722
1616
1643
1779
1951
2063
2032
1906
1744
1629
1611
1721
1889
2032
2063
1969
1801
1641
1571
1616
1765
1930
2013
1998
1898
1781
1749
1867
2097
2339
2496
2503
2389
2192
2003
1905
1890
1921
1903
1754
1519
1266
1072
987
1073
1283
1497
1613
1586
1468
1349
1322
1411
1616
1856
2027
2054
1958
1799
1684
1664
1778
1966
2119
2131
2021
1847
1691
1647
1744
1913
2101
2170
2111
1963
1801
1711
1732
1870
2037
2147
2128
2000
1856
1751
1751
1872
2047
2190
2202
2098
1930
1783
1733
1803
1971
2145
2213
2161
2014
1858
1776
1808
1951
2131
2236
2223
2097
1926
1806
1783
1881
2064
2187
2208
2137
1999
1889
1856
1929
2106
2269
2327
2262
2129
1976
1885
1919
2058
2221
2321
2314
2213
2067
1959
1942
2046
2213
2337
2350
2256
2107
1963
1919
1984
2147
2302
2338
2257
2110
1935
1834
1851
1997
2154
2227
2174
2018
1833
1702
1675
1790
1975
2116
2127
2013
1859
1712
1658
1724
1877
2027
2079
2000
1853
1707
1617
1650
1785
1967
2075
2058
1929
1766
1647
1635
1750
1931
2071
2089
1980
1808
1673
1622
1679
1827
1987
2064
2007
1872
1712
1636
1689
1831
1978
2064
2038
1911
1761
1659
1666
1793
1974
2106
2109
1978
1803
1681
1660
1744
1904
2059
2110
2018
1883
1728
1655
1709
1853
2026
2117
2081
1931
1770
1660
1658
1776
1969
2102
2111
1999
1831
1680
1639
1739
1931
2096
2138
2074
1909
1743
1662
1692
1859
2037
2130
2108
1995
1857
1754
1771
1894
2082
2224
2242
2163
2000
1868
1819
1878
2032
2190
2229
2143
1968
1801
1715
1755
1890
2075
2170
2148
2035
1881
1750
1719
1811
1984
2123
2135
2033
1880
1757
1713
1776
1926
2096
2167
2113
1945
1774
1680
1725
1887
2079
2179
2124
1959
1782
1674
1670
1777
1971
2139
2199
2160
2064
2007
2059
2194
2407
2591
2628
2522
2304
2030
1791
1654
1616
1641
1622
1507
1345
1190
1104
1153
1328
1535
1728
1782
1741
1647
1565
1587
1719
1925
2119
2193
2146
2000
1853
1779
1826
1963
2125
2222
2191
2064
1904
1795
1793
1913
2098
2243
2261
2170
2010
1877
1842
1905
2059
2205
2252
2190
2053
1901
1822
1854
1984
2175
2271
2239
2114
1946
1831
1829
1943
2129
2293
2304
2171
1997
1876
1859
1934
2089
2220
2259
2211
2090
1949
1893
1949
2113
2292
2387
2363
2240
2094
1986
2000
2124
2290
2422
2447
2357
2198
2064
2011
2086
2256
2428
2495
2429
2280
2117
2029
2064
2203
2371
2471
2447
2322
2163
2043
2041
2160
2320
2431
2426
2327
2160
2000
1927
1991
2175
2345
2377
2277
2096
1919
1830
1869
2007
2183
2278
2246
2113
1948
1840
1834
1938
2115
2247
2256
2149
1983
1840
1790
1855
2019
2182
2229
2154
1991
1839
1762
1808
1973
2160
2262
2231
2095
1921
1814
1833
1967
2156
2290
2293
2163
1974
1827
1781
1840
1998
2163
2223
2162
2031
1890
1814
1870
2032
2218
2291
2242
2097
1926
1813
1799
1902
2068
2197
2210
2121
1959
1834
1799
1875
2047
2219
2255
2167
2000
1840
1776
1827
1993
2181
2271
2228
2083
1898
1771
1746
1878
2087
2234
2240
2139
1974
1829
1791
1886
2066
2237
2288
2213
2062
1921
1858
1882
2016
2193
2299
2263
2128
1954
1840
1841
1951
2123
2227
2214
2096
1923
1779
1742
1825
2000
2170
2213
2127
1949
1795
1735
1787
1936
2097
2174
2112
1973
1819
1721
1733
1861
2054
2162
2137
2001
1846
1728
1702
1783
1957
2109
2146
2046
1869
1710
1630
1693
1861
2097
2234
2269
2221
2147
2112
2170
2325
2517
2643
2591
2366
2044
1739
1517
1418
1435
1505
1519
1438
1301
1175
1139
1217
1434
1676
1838
1866
1789
1691
1638
1687
1834
2032
2181
2203
2112
1965
1835
1792
1869
2047
2217
2256
2176
2015
1854
1793
1846
1995
2171
2263
2218
2080
1920
1815
1829
1954
2151
2289
2298
2192
2032
1897
1867
1959
2141
2295
2338
2246
2101
1958
1881
1936
2097
2279
2368
2321
2181
2015
1901
1901
2022
2222
2363
2375
2291
2141
1997
1957
2041
2222
2387
2448
2381
2219
2059
1983
2032
2192
2370
2465
2438
2320
2160
2079
2109
2227
2397
2521
2517
2413
2256
2129
2096
2174
2342
2496
2543
2467
2307
2149
2063
2095
2247
2413
2468
2415
2275
2099
1979
1975
2075
2238
2353
2342
2231
2053
1879
1836
1905
2063
2214
2253
2170
2015
1859
1793
1842
1994
2157
2234
2190
2043
1897
1787
1787
1891
2075
2188
2195
2089
1917
1782
1746
1826
1999
2171
2219
2139
1985
1842
1775
1817
1952
2138
2221
2178
2047
1902
1799
1779
1890
2073
2210
2206
2085
1943
1809
1779
1867
2032
2192
2221
2130
1981
1838
1788
1870
2007
2177
2256
2193
2031
1851
1742
1744
1866
2047
2182
2185
2070
1910
1792
1779
1875
2046
2192
2219
2123
1968
1825
1754
1798
1950
2128
2211
2159
2015
1872
1789
1809
1941
2125
2237
2225
2109
1937
1819
1802
1901
2097
2275
2347
2283
2128
1969
1889
1920
2064
2206
2275
2228
2071
1881
1763
1755
1859
2033
2163
2172
2081
1929
1802
1785
1886
2047
2196
2237
2151
1975
1814
1746
1786
1931
2096
2186
2147
2006
1839
1741
1761
1895
2073
2183
2167
2039
1869
1731
1686
1770
1917
2066
2127
2096
2000
1915
1916
2046
2288
2515
2640
2610
2451
2259
2075
1950
1933
1935
1872
1690
1447
1216
1072
1069
1183
1389
1591
1680
1648
1535
1474
1486
1615
1831
2064
2176
2160
2032
1882
1776
1776
1886
2059
2183
2176
2033
1884
1760
1746
1855
2035
2198
2246
2161
2000
1856
1794
1853
2001
2161
2234
2190
2053
1887
1783
1790
1929
2141
2276
2263
2141
1979
1858
1839
1929
2112
2277
2321
2228
2061
1907
1850
1911
2047
2224
2317
2272
2114
1942
1855
1871
2011
2198
2331
2328
2219
2064
1936
1925
2035
2234
2398
2448
2368
2212
2079
2015
2074
2211
2364
2443
2405
2263
2109
2007
2018
2160
2353
2473
2448
2331
2167
2037
2002
2086
2243
2386
2416
2326
2176
2032
1958
1981
2118
2273
2330
2266
2102
1936
1839
1842
1963
2127
2230
2216
2110
1935
1791
1760
1852
2027
2175
2197
2105
1934
1789
1727
1769
1904
2069
2155
2113
1982
1826
1735
1759
1875
2035
2143
2125
1998
1840
1733
1728
1855
2029
2187
2244
2160
1981
1808
1729
1769
1911
2091
2176
2128
1983
1829
1740
1753
1881
2059
2166
2159
2029
1872
1759
1739
1826
1993
2144
2180
2096
1942
1790
1727
1770
1923
2094
2172
2112
1962
1808
1709
1713
1841
2031
2158
2134
1991
1819
1702
1680
1778
1954
2128
2159
2061
1889
1730
1666
1727
1902
2091
2179
2133
1999
1837
1728
1732
1854
2032
2150
2142
2042
1902
1781
1753
1841
2020
2165
2197
2118
1981
1842
1794
1840
1974
2129
2187
2110
1953
1792
1691
1690
1799
1982
2121
2118
1999
1827
1682
1654
1751
1922
2075
2112
2025
1856
1709
1648
1696
1849
2032
2113
2047
1903
1742
1651
1665
1804
1974
2100
2100
1975
1797
1633
1577
1664
1834
1985
2037
1985
1888
1808
1809
1925
2155
2391
2544
2531
2397
2219
2062
1951
1931
1941
1883
1699
1443
1216
1040
1003
1103
1312
1523
1617
1573
1461
1382
1394
1516
1749
1984
2131
2130
1975
1806
1690
1709
1847
2042
2178
2176
2056
1904
1795
1781
1874
2037
2176
2185
2090
1927
1786
1729
1791
1951
2128
2207
2160
2028
1872
1793
1822
1961
2153
2277
2256
2132
1975
1846
1807
1898
2083
2223
2252
2145
1977
1837
1791
1867
2046
2246
2333
2274
2135
1968
1873
1904
2042
2228
2351
2327
2191
2015
1887
1878
1981
2178
2334
2371
2293
2145
2004
1949
2026
2224
2422
2493
2441
2289
2112
1997
1985
2115
2287
2407
2406
2293
2129
1997
1976
2066
2225
2369
2400
2316
2150
1987
1914
1941
2092
2231
2288
2219
2065
1895
1791
1798
1931
2110
2223
2197
2064
1899
1766
1726
1808
1971
2113
2146
2047
1886
1733
1666
1723
1875
2038
2095
2032
1898
1751
1652
1673
1811
1984
2098
2089
1974
1824
1713
1700
1790
1947
2107
2131
2023
1861
1721
1661
1716
1883
2066
2141
2084
1936
1777
1679
1680
1798
1985
2102
2078
1963
1821
1719
1712
1810
1968
2118
2123
2018
1873
1729
1668
1722
1872
2053
2129
2090
1965
1810
1701
1719
1849
2025
2141
2110
1984
1839
1739
1703
1759
1918
2081
2146
2083
1935
1781
1713
1767
1920
2096
2167
2123
1994
1840
1744
1742
1857
2026
2150
2131
2014
1851
1730
1718
1820
2007
2175
2203
2098
1936
1808
1751
1812
1968
2171
2251
2212
2064
1892
1790
1809
1931
2101
2209
2203
2079
1872
1738
1697
1781
1965
2128
2159
2061
1887
1739
1666
1712
1863
2030
2112
2078
1931
1776
1676
1690
1810
1971
2097
2101
1991
1831
1696
1663
1757
1953
2112
2126
1997
1794
1603
1529
1600
1787
1988
2106
2114
2046
1958
1936
2038
2253
2469
2601
2559
2415
2192
1954
1783
1708
1695
1672
1573
1405
1230
1101
1081
1175
1387
1590
1699
1689
1604
1513
1491
1578
1743
1927
2069
2071
1965
1803
1680
1663
1773
1949
2105
2128
2044
1897
1759
1711
1777
1935
2103
2167
2117
1971
1815
1728
1743
1871
2043
2174
2159
2023
1863
1750
1743
1841
2041
2203
2231
2142
1978
1825
1762
1828
2015
2215
2293
2223
2062
1887
1792
1813
1962
2146
2254
2233
2112
1955
1841
1839
1947
2131
2287
2304
2224
2078
1939
1889
1966
2143
2327
2417
2368
2224
2066
1971
1986
2152
2337
2444
2418
2293
2133
2016
2007
2124
2303
2431
2435
2337
2192
2047
1995
2055
2199
2367
2428
2353
2191
2013
1909
1922
2067
2247
2324
2285
2152
1969
1839
1803
1885
2039
2176
2189
2092
1920
1773
1719
1789
1950
2110
2161
2101
1951
1793
1685
1699
1838
2011
2128
2128
2010
1847
1733
1715
1823
2000
2158
2177
2063
1883
1730
1669
1746
1936
2121
2187
2115
1972
1793
1687
1713
1866
2053
2151
2117
1983
1814
1691
1680
1783
1966
2112
2142
2042
1872
1728
1690
1763
1916
2074
2135
2073
1922
1767
1690
1738
1887
2076
2192
2167
2025
1840
1697
1669
1788
1969
2121
2140
2047
1888
1737
1669
1719
1888
2064
2128
2072
1922
1759
1648
1665
1798
1983
2097
2079
1966
1819
1709
1683
1779
1939
2092
2125
2057
1918
1778
1712
1759
1921
2089
2147
2077
1919
1763
1680
1712
1848
2018
2145
2149
2055
1905
1779
1750
1866
2046
2185
2178
2043
1870
1722
1663
1714
1887
2057
2122
2065
1925
1775
1680
1695
1830
2002
2114
2096
1961
1788
1665
1664
1783
1963
2103
2127
2035
1872
1735
1689
1760
1909
2057
2096
2023
1891
1753
1679
1712
1849
2003
2103
2071
1942
1802
1723
1761
1921
2157
2367
2467
2438
2334
2199
2157
2202
2294
2342
2246
2007
1685
1378
1184
1166
1289
1486
1622
1633
1529
1396
1305
1323
1474
1707
1904
1989
1953
1840
1722
1686
1775
1957
2134
2197
2124
1974
1812
1738
1775
1904
2074
2162
2145
2032
1887
1787
1776
1870
2041
2171
2176
2070
1911
1783
1735
1797
1965
2146
2214
2166
2029
1872
1770
1788
1929
2115
2224
2203
2080
1919
1797
1771
1869
2042
2185
2211
2117
1957
1835
1811
1889
2060
2225
2293
2239
2096
1935
1847
1885
2047
2243
2345
2323
2193
2042
1934
1923
2031
2209
2352
2374
2298
2160
2023
1983
2067
2238
2375
2409
2334
2188
2025
1929
1958
2109
2294
2396
2358
2224
2046
1919
1901
2000
2170
2295
2305
2197
2027
1866
1793
1845
2001
2176
2234
2154
1986
1825
1733
1749
1873
2053
2147
2122
2000
1839
1700
1680
1791
1968
2095
2091
1981
1823
1695
1662
1737
1915
2091
2154
2079
1913
1747
1651
1692
1840
2012
2117
2095
1970
1818
1704
1700
1815
1997
2143
2145
2035
1872
1731
1685
1751
1926
2098
2173
2106
1939
1771
1677
1726
1903
2099
2195
2159
2022
1861
1743
1712
1820
2013
2142
2146
2043
1904
1771
1714
1779
1942
2113
2179
2118
1965
1806
1712
1749
1889
2065
2165
2141
2002
1827
1717
1712
1815
1997
2155
2161
2057
1898
1759
1712
1779
1947
2111
2160
2095
1942
1792
1715
1744
1874
2039
2160
2155
2047
1898
1787
1776
1872
2042
2176
2187
2064
1922
1801
1755
1808
1951
2105
2158
2078
1908
1733
1650
1711
1863
2045
2156
2119
1979
1805
1680
1675
1776
1964
2073
2070
1961
1782
1643
1600
1712
1902
2065
2115
2062
1916
1758
1678
1711
1842
2000
2074
2013
1872
1717
1611
1607
1735
1966
2160
2245
2211
2107
2007
2018
2145
2352
2518
2559
2442
2196
1888
1651
1520
1513
1584
1620
1580
1445
1296
1198
1214
1360
1600
1790
1836
1783
1682
1600
1600
1714
1914
2103
2173
2125
1969
1812
1728
1761
1919
2123
2231
2199
2060
1887
1774
1781
1904
2071
2209
2237
2157
2015
1881
1817
1874
2026
2182
2244
2185
2039
1890
1826
1875
2018
2178
2258
2213
2079
1902
1779
1783
1904
2096
2240
2266
2178
2032
1911
1879
1959
2123
2277
2320
2263
2133
1991
1931
1982
2143
2320
2418
2390
2269
2115
2001
2003
2129
2320
2466
2498
2398
2225
2073
2011
2083
2245
2414
2481
2430
2288
2126
2031
2068
2207
2368
2469
2441
2314
2162
2043
2035
2145
2315
2434
2426
2295
2108
1957
1910
1968
2115
2266
2333
2258
2099
1930
1834
1855
1993
2165
2256
2217
2080
1907
1791
1776
1889
2070
2191
2192
2075
1914
1776
1738
1819
1990
2162
2220
2143
1983
1810
1724
1749
1894
2067
2166
2154
2032
1874
1773
1776
1895
2064
2189
2186
2090
1943
1808
1772
1839
1995
2151
2207
2139
1983
1830
1750
1792
1942
2117
2205
2174
2036
1869
1742
1733
1867
2077
2239
2263
2160
1970
1824
1775
1825
1971
2128
2187
2138
2007
1849
1759
1795
1957
2130
2233
2197
2082
1907
1782
1763
1875
2066
2203
2219
2139
1984
1847
1797
1863
2019
2181
2231
2163
2019
1872
1808
1857
2000
2182
2288
2236
2110
1936
1828
1824
1944
2130
2264
2278
2177
2015
1872
1840
1899
2057
2198
2245
2169
2014
1847
1774
1817
1963
2127
2215
2166
2015
1857
1744
1742
1857
2045
2197
2207
2096
1919
1759
1710
1791
1968
2105
2149
2080
1933
1783
1712
1759
1915
2091
2186
2146
2006
1829
1686
1669
1805
2005
2192
2254
2209
2118
2046
2059
2176
2378
2551
2590
2463
2225
1927
1683
1535
1522
1583
1604
1519
1379
1234
1159
1201
1358
1584
1763
1831
1787
1680
1595
1598
1712
1899
2078
2145
2090
1950
1808
1729
1759
1904
2091
2176
2141
2021
1861
1739
1723
1834
2002
2128
2133
2032
1906
1790
1751
1827
1985
2141
2190
2118
1969
1809
1731
1773
1921
2110
2192
2159
2029
1870
1767
1776
1891
2067
2191
2192
2093
1926
1792
1745
1815
1984
2146
2207
2156
2019
1885
1807
1842
1993
2171
2253
2209
2080
1925
1815
1812
1941
2148
2304
2338
2239
2078
1936
1894
1965
2135
2309
2372
2295
2131
1978
1913
1949
2096
2269
2368
2341
2214
2059
1926
1904
2002
2183
2294
2278
2141
1965
1814
1763
1827
1983
2130
2176
2101
1936
1763
1664
1692
1839
2013
2097
2037
1899
1729
1621
1646
1769
1937
2063
2052
1931
1765
1634
1609
1685
1855
2009
2059
1965
1806
1645
1566
1620
1781
1954
2037
2003
1886
1730
1619
1615
1743
1923
2068
2085
1969
1792
1650
1612
1693
1859
2016
2062
1988
1843
1680
1600
1648
1809
1984
2075
2032
1894
1728
1609
1603
1727
1904
2015
2000
1894
1738
1604
1576
1678
1865
2017
2075
2000
1836
1677
1604
1646
1787
1942
2043
2018
1879
1715
1609
1614
1748
1940
2071
2046
1920
1755
1623
1590
1669
1831
1985
2037
1967
1821
1662
1584
1630
1792
1984
2085
2037
1889
1706
1590
1602
1734
1936
2090
2090
1975
1826
1710
1680
1757
1905
2034
2045
1942
1781
1623
1552
1605
1772
1931
2004
1979
1855
1684
1575
1570
1686
1860
1998
1999
1872
1706
1574
1535
1648
1818
1969
2015
1943
1779
1622
1557
1594
1739
1911
2017
1987
1849
1669
1535
1527
1647
1830
1988
2047
2019
1941
1881
1902
2035
2253
2441
2495
2401
2224
2000
1807
1680
1659
1660
1590
1447
1273
1090
990
1023
1190
1424
1634
1691
1638
1529
1457
1486
1623
1835
2022
2082
2009
1863
1713
1643
1686
1853
2057
2149
2114
1979
1818
1718
1727
1852
2032
2160
2165
2045
1883
1761
1731
1828
2003
2182
2225
2146
1979
1835
1774
1818
1977
2173
2274
2240
2096
1929
1810
1792
1907
2103
2245
2256
2163
2015
1894
1871
1954
2089
2231
2286
2211
2064
1919
1871
1926
2087
2257
2351
2311
2176
2024
1942
1981
2123
2306
2450
2471
2368
2205
2082
2038
2125
2289
2448
2496
2416
2257
2106
2027
2075
2228
2398
2502
2471
2339
2144
2007
2000
2127
2304
2431
2427
2304
2128
1968
1921
1994
2143
2285
2306
2207
2055
1915
1847
1887
2030
2192
2261
2208
2069
1911
1821
1825
1919
2067
2177
2169
2064
1904
1781
1743
1813
1973
2138
2195
2122
1959
1806
1735
1795
1950
2117
2205
2160
2000
1836
1728
1741
1873
2045
2170
2182
2080
1901
1781
1773
1856
2020
2179
2211
2128
1967
1811
1744
1795
1930
2125
2217
2179
2055
1902
1793
1804
1925
2097
2224
2213
2087
1904
1776
1751
1850
2027
2186
2227
2150
1979
1808
1743
1789
1953
2134
2229
2191
2047
1887
1783
1788
1906
2096
2227
2219
2108
1933
1791
1744
1838
2013
2176
2223
2159
2013
1871
1799
1843
1984
2142
2202
2147
2018
1879
1781
1783
1911
2099
2227
2240
2140
1981
1845
1837
1933
2101
2249
2291
2223
2091
1946
1874
1918
2054
2205
2263
2205
2066
1905
1795
1803
1936
2068
2151
2137
2031
1885
1769
1750
1840
2008
2145
2168
2077
1921
1776
1714
1767
1910
2094
2180
2125
1983
1818
1717
1729
1857
2041
2169
2161
2045
1874
1728
1680
1749
1904
2046
2096
2044
1939
1856
1855
1968
2202
2448
2613
2614
2464
2261
2121
2093
2126
2159
2101
1894
1600
1301
1104
1057
1153
1360
1533
1591
1535
1441
1347
1347
1474
1714
1961
2087
2055
1927
1791
1714
1733
1861
2033
2163
2169
2064
1914
1794
1779
1872
2063
2207
2223
2112
1943
1805
1757
1820
1968
2139
2231
2193
2062
1897
1794
1799
1924
2116
2238
2233
2124
1966
1822
1782
1867
2032
2187
2233
2166
2021
1883
1813
1845
1984
2157
2253
2229
2107
1959
1879
1911
2047
2224
2332
2308
2198
2042
1940
1931
2021
2195
2343
2374
2315
2195
2064
2000
2059
2219
2393
2476
2432
2289
2122
2005
2014
2135
2311
2448
2453
2341
2178
2057
2020
2112
2287
2443
2475
2371
2193
2013
1936
1989
2154
2330
2415
2352
2194
2014
1911
1904
2025
2192
2295
2267
2143
1975
1834
1771
1838
2010
2176
2223
2151
2000
1837
1751
1781
1942
2125
2208
2164
2019
1855
1746
1750
1877
2062
2182
2174
2061
1898
1766
1738
1817
1988
2166
2222
2115
1921
1756
1693
1767
1933
2115
2190
2128
1973
1810
1718
1739
1872
2071
2205
2202
2086
1915
1776
1742
1819
1971
2123
2167
2089
1939
1791
1723
1765
1907
2090
2161
2114
1983
1849
1771
1771
1872
2031
2153
2151
2031
1869
1739
1713
1783
1971
2122
2157
2067
1904
1751
1674
1737
1907
2111
2193
2157
2000
1829
1717
1729
1858
2047
2166
2158
2035
1887
1735
1711
1808
1979
2119
2146
2079
1937
1801
1744
1796
1965
2151
2231
2184
2037
1887
1789
1766
1863
2047
2174
2174
2063
1893
1754
1741
1830
1986
2129
2158
2062
1894
1736
1669
1719
1873
2058
2139
2090
1939
1774
1662
1665
1799
1982
2128
2133
2007
1819
1685
1671
1771
1942
2096
2126
2034
1865
1710
1648
1683
1826
1998
2087
2064
1971
1891
1874
1979
2195
2443
2619
2624
2487
2282
2080
1936
1887
1894
1861
1705
1469
1248
1104
1085
1188
1392
1611
1732
1724
1619
1512
1472
1535
1723
1952
2111
2125
2038
1904
1776
1763
1873
2044
2183
2207
2113
1955
1816
1760
1826
1989
2163
2239
2187
2035
1903
1821
1841
1978
2166
2286
2263
2132
1959
1833
1811
1905
2091
2229
2245
2143
1968
1821
1780
1861
2032
2213
2293
2240
2104
1943
1857
1877
2007
2199
2318
2309
2178
2001
1872
1856
1970
2173
2321
2349
2266
2123
1994
1943
2005
2177
2366
2447
2395
2254
2096
1996
2015
2160
2335
2457
2458
2352
2192
2065
2043
2134
2314
2471
2500
2411
2243
2096
2031
2073
2210
2358
2418
2356
2207
2061
1968
1979
2098
2256
2355
2324
2190
2013
1877
1846
1926
2099
2242
2266
2149
1965
1801
1729
1780
1943
2133
2209
2148
2016
1888
1807
1825
1954
2118
2223
2186
2061
1899
1770
1745
1837
2002
2162
2203
2117
1959
1812
1772
1854
2031
2203
2263
2201
2074
1910
1808
1824
1959
2149
2258
2240
2114
1952
1835
1823
1922
2097
2247
2285
2179
2004
1854
1799
1858
2004
2180
2262
2227
2098
1945
1858
1877
1996
2172
2286
2273
2162
2006
1891
1865
1939
2096
2261
2300
2218
2069
1927
1881
1941
2097
2261
2339
2293
2159
2010
1917
1938
2071
2251
2365
2351
2229
2067
1939
1943
2076
2271
2434
2475
2391
2247
2109
2065
2129
2303
2488
2590
2553
2418
2253
2143
2128
2240
2393
2515
2496
2349
2161
2027
2002
2109
2283
2416
2414
2304
2160
2038
1988
2032
2174
2320
2390
2347
2220
2071
1970
1979
2111
2276
2384
2362
2235
2067
1919
1890
1983
2160
2306
2315
2195
2031
1879
1825
1875
2033
2224
2322
2306
2209
2117
2109
2205
2406
2640
2785
2781
2645
2420
2190
2009
1927
1904
1866
1761
1586
1396
1258
1224
1312
1511
1738
1851
1839
1750
1658
1639
1728
1910
2128
2270
2261
2154
2003
1904
1917
2045
2245
2384
2407
2311
2160
2003
1937
1995
2176
2352
2439
2402
2274
2128
2042
2065
2225
2419
2545
2531
2411
2231
2112
2110
2224
2426
2581
2608
2510
2337
2191
2143
2211
2379
2559
2654
2615
2474
2316
2224
2253
2409
2595
2705
2688
2559
2401
2271
2234
2331
2525
2685
2723
2643
2495
2354
2291
2352
2503
2668
2731
2659
2501
2338
2243
2283
2434
2629
2747
2736
2622
2457
2320
2287
2383
2559
2704
2714
2609
2437
2287
2224
2276
2432
2594
2639
2559
2390
2222
2117
2128
2241
2411
2511
2476
2320
2125
1951
1904
1999
2191
2339
2362
2256
2085
1921
1853
1909
2064
2204
2251
2175
2017
1851
1757
1793
1943
2122
2224
2190
2055
1883
1770
1769
1869
2032
2171
2183
2095
1931
1792
1741
1788
1925
2071
2119
2053
1898
1763
1680
1701
1834
2015
2142
2125
1977
1792
1653
1636
1739
1935
2082
2097
2005
1850
1702
1635
1689
1859
2038
2107
2018
1862
1714
1636
1654
1786
1959
2071
2046
1904
1742
1618
1599
1699
1874
2012
2033
1941
1799
1670
1615
1648
1786
1946
2017
1967
1821
1663
1583
1595
1744
1936
2058
2039
1919
1769
1657
1636
1739
1924
2080
2087
1973
1814
1689
1665
1739
1883
2027
2084
2011
1857
1687
1585
1598
1728
1882
1985
1968
1858
1712
1605
1575
1663
1833
1981
2014
1920
1761
1613
1535
1595
1759
1942
2023
1949
1778
1615
1525
1555
1684
1858
1956
1931
1795
1625
1509
1502
1599
1751
1886
1908
1819
1666
1563
1569
1710
1949
2185
2303
2298
2192
2055
1949
1920
1973
2047
1997
1788
1486
1173
955
882
977
1170
1330
1367
1326
1205
1114
1109
1245
1502
1731
1874
1861
1753
1609
1525
1535
1680
1858
1959
1936
1815
1663
1535
1517
1616
1807
1955
1974
1885
1727
1588
1558
1655
1833
2002
2070
2007
1873
1727
1645
1663
1793
1967
2075
2043
1943
1797
1663
1638
1740
1894
2023
2039
1947
1809
1681
1647
1712
1879
2047
2110
2037
1894
1729
1635
1659
1820
2021
2139
2117
2000
1858
1744
1741
1870
2064
2223
2231
2128
1981
1856
1822
1904
2093
2256
2304
2219
2080
1930
1853
1893
2023
2189
2288
2278
2176
2007
1876
1847
1952
2123
2261
2281
2176
2001
1846
1787
1851
2012
2163
2202
2112
1945
1781
1680
1693
1825
1990
2091
2047
1915
1737
1591
1573
1687
1879
2028
2035
1919
1750
1614
1566
1629
1787
1941
2007
1938
1788
1643
1569
1600
1740
1909
1999
1954
1821
1657
1534
1525
1631
1808
1963
1990
1889
1740
1610
1582
1667
1840
2004
2039
1941
1780
1631
1552
1585
1729
1913
2016
1999
1885
1745
1643
1616
1712
1862
1991
2002
1904
1735
1600
1556
1630
1803
1985
2037
1968
1808
1651
1567
1601
1761
1942
2034
1991
1879
1723
1616
1614
1734
1899
2029
2034
1933
1782
1649
1613
1689
1854
2011
2075
2005
1858
1698
1623
1664
1830
2030
2157
2131
2000
1820
1707
1703
1841
2047
2185
2175
2038
1859
1705
1661
1722
1878
2039
2103
2032
1869
1711
1620
1648
1782
1955
2063
2021
1886
1744
1649
1648
1744
1905
2023
2029
1943
1785
1651
1600
1671
1851
2013
2071
1991
1839
1690
1623
1670
1791
1949
2017
1969
1840
1679
1568
1587
1743
1989
2212
2299
2279
2202
2124
2115
2192
2326
2436
2397
2214
1913
1578
1303
1183
1229
1362
1456
1449
1359
1231
1143
1168
1322
1569
1795
1919
1886
1774
1664
1648
1742
1913
2087
2138
2079
1923
1760
1680
1714
1866
2061
2164
2128
2000
1856
1755
1754
1881
2047
2183
2188
2091
1926
1798
1750
1823
1989
2158
2229
2181
2038
1881
1782
1811
1967
2151
2256
2229
2112
1961
1845
1840
1957
2147
2293
2304
2191
2022
1889
1855
1949
2118
2273
2324
2256
2114
1964
1904
1958
2128
2312
2417
2398
2269
2110
1999
2005
2129
2335
2494
2512
2406
2238
2102
2071
2167
2350
2512
2557
2481
2331
2155
2062
2111
2274
2454
2557
2527
2384
2212
2083
2059
2157
2322
2450
2459
2346
2161
1993
1933
2001
2174
2337
2403
2337
2190
2026
1934
1959
2095
2267
2353
2323
2207
2043
1920
1911
2031
2222
2354
2365
2272
2128
1986
1919
1987
2150
2299
2355
2294
2158
2010
1937
1984
2138
2311
2399
2357
2224
2078
1973
1985
2112
2295
2432
2447
2361
2224
2096
2064
2157
2338
2501
2583
2516
2382
2237
2160
2193
2352
2546
2646
2604
2475
2327
2224
2215
2334
2533
2683
2691
2578
2404
2253
2192
2259
2425
2597
2653
2579
2419
2260
2182
2221
2367
2549
2662
2623
2477
2304
2176
2162
2270
2437
2559
2559
2465
2305
2179
2155
2240
2412
2559
2607
2510
2363
2231
2162
2205
2357
2527
2620
2559
2431
2263
2140
2123
2215
2363
2460
2442
2320
2161
2038
2011
2094
2253
2403
2453
2374
2220
2078
1990
2023
2157
2302
2380
2346
2217
2061
1936
1927
2035
2211
2324
2318
2206
2043
1904
1855
1920
2073
2222
2243
2154
1979
1821
1744
1809
2003
2247
2411
2435
2383
2297
2250
2305
2457
2635
2716
2630
2394
2070
1741
1502
1424
1475
1573
1595
1523
1402
1280
1233
1312
1501
1737
1895
1934
1872
1757
1710
1739
1882
2088
2224
2224
2110
1941
1801
1765
1861
2025
2194
2244
2190
2056
1895
1792
1814
1954
2126
2210
2179
2067
1931
1823
1822
1938
2122
2241
2226
2112
1951
1831
1803
1895
2071
2213
2249
2165
2006
1855
1793
1850
1994
2175
2261
2237
2112
1949
1821
1819
1930
2111
2255
2283
2195
2033
1883
1838
1913
2097
2262
2315
2249
2118
1968
1881
1922
2085
2255
2347
2322
2203
2057
1962
1985
2123
2303
2422
2417
2303
2140
1987
1945
2031
2213
2378
2416
2337
2187
2010
1910
1928
2075
2242
2320
2269
2128
1963
1856
1853
1937
2081
2158
2124
2011
1857
1719
1689
1786
1937
2096
2131
2047
1895
1733
1630
1648
1799
1989
2099
2047
1901
1726
1613
1618
1755
1939
2065
2047
1933
1771
1639
1592
1667
1840
1997
2060
2000
1859
1711
1644
1681
1827
1994
2071
1999
1845
1701
1627
1664
1776
1959
2084
2084
1979
1816
1694
1658
1731
1885
2021
2077
1998
1847
1712
1649
1697
1856
2021
2103
2057
1915
1779
1675
1673
1775
1939
2073
2078
1968
1801
1664
1622
1701
1862
2015
2062
1988
1838
1699
1652
1707
1845
2003
2094
2047
1919
1775
1672
1680
1800
1989
2146
2165
2061
1899
1747
1699
1789
1996
2176
2231
2156
1991
1818
1737
1773
1904
2053
2117
2061
1915
1766
1667
1680
1803
1968
2118
2112
1971
1808
1671
1657
1751
1915
2074
2112
2030
1892
1746
1682
1744
1895
2057
2123
2079
1950
1791
1680
1680
1805
1981
2101
2088
1952
1775
1619
1590
1700
1892
2094
2195
2202
2137
2068
2079
2191
2378
2554
2615
2502
2272
1938
1633
1426
1360
1412
1473
1450
1328
1187
1058
1042
1158
1378
1595
1710
1706
1631
1554
1535
1619
1801
1981
2076
2027
1872
1711
1604
1603
1725
1909
2057
2062
1950
1791
1654
1619
1714
1879
2043
2112
2045
1873
1727
1668
1712
1849
2018
2126
2099
1999
1845
1739
1746
1872
2040
2160
2143
2022
1872
1757
1744
1854
2030
2204
2248
2160
2005
1872
1830
1884
2032
2197
2288
2256
2131
1984
1905
1938
2078
2267
2412
2417
2323
2175
2057
2030
2134
2320
2496
2559
2496
2363
2229
2186
2247
2401
2546
2624
2559
2429
2270
2171
2187
2319
2520
2673
2687
2579
2415
2275
2223
2287
2432
2559
2579
2490
2325
2176
2111
2158
2291
2431
2496
2437
2287
2108
1983
1984
2106
2271
2388
2381
2259
2109
1983
1959
2047
2213
2352
2379
2288
2119
1972
1914
1966
2125
2293
2368
2320
2179
2011
1905
1909
2025
2193
2317
2308
2201
2047
1934
1915
2000
2176
2331
2369
2299
2150
2001
1951
2019
2194
2389
2496
2466
2352
2215
2113
2118
2246
2426
2559
2559
2462
2320
2192
2157
2223
2363
2497
2521
2439
2289
2151
2084
2128
2268
2419
2485
2441
2320
2173
2064
2074
2189
2355
2461
2430
2298
2149
2019
1968
2069
2240
2394
2433
2353
2189
2019
1959
2007
2152
2320
2416
2375
2233
2067
1975
2000
2139
2317
2435
2435
2309
2119
1969
1936
2000
2170
2310
2347
2256
2096
1934
1863
1903
2031
2178
2239
2179
2054
1897
1791
1801
1919
2106
2227
2231
2119
1933
1775
1730
1808
1973
2123
2150
2067
1909
1768
1702
1723
1870
2039
2129
2070
1910
1740
1630
1636
1764
1953
2114
2165
2117
2003
1936
1971
2107
2285
2411
2395
2234
1963
1664
1424
1293
1296
1345
1361
1300
1183
1059
993
1067
1235
1451
1616
1664
1610
1516
1435
1449
1595
1799
1967
2002
1923
1762
1615
1535
1616
1790
1971
2082
2047
1918
1776
1695
1712
1839
1997
2113
2102
1981
1819
1695
1670
1776
1968
2123
2159
2079
1923
1792
1733
1778
1931
2109
2192
2144
1999
1843
1750
1769
1891
2059
2185
2188
2086
1930
1814
1805
1891
2042
2197
2250
2195
2080
1922
1870
1934
2096
2262
2349
2320
2199
2043
1946
1971
2118
2288
2398
2393
2289
2134
2004
1985
2094
2272
2434
2485
2422
2278
2142
2081
2133
2304
2484
2559
2519
2381
2233
2151
2176
2307
2488
2617
2596
2473
2310
2173
2135
2223
2375
2496
2508
2412
2243
2085
2001
2055
2199
2365
2446
2390
2255
2096
1999
2012
2133
2298
2391
2359
2217
2030
1890
1867
1966
2129
2271
2304
2222
2062
1911
1856
1917
2073
2214
2283
2235
2094
1936
1865
1899
2036
2214
2318
2288
2158
1982
1845
1808
1899
2067
2209
2247
2163
2017
1873
1813
1869
2001
2151
2215
2155
2019
1871
1795
1807
1920
2084
2190
2176
2058
1895
1776
1750
1837
1986
2158
2201
2121
1967
1803
1719
1773
1936
2128
2219
2173
2034
1853
1709
1696
1810
1994
2139
2158
2046
1889
1776
1755
1834
2000
2160
2194
2102
1938
1791
1722
1770
1919
2080
2155
2096
1935
1766
1662
1680
1810
1978
2086
2065
1946
1776
1657
1633
1712
1872
2031
2062
1983
1834
1678
1600
1649
1803
1982
2065
2010
1854
1681
1581
1589
1734
1918
2034
2011
1878
1706
1584
1555
1637
1810
1989
2064
2034
1927
1859
1872
1990
2199
2391
2449
2355
2130
1855
1621
1488
1462
1493
1518
1456
1309
1155
1078
1103
1232
1450
1651
1728
1682
1564
1447
1421
1521
1729
1935
2038
2016
1879
1728
1646
1671
1808
1983
2107
2102
1984
1825
1701
1678
1774
1949
2109
2142
2057
1902
1759
1702
1749
1918
2101
2176
2139
1999
1838
1735
1746
1867
2039
2171
2166
2061
1901
1782
1767
1856
2026
2181
2198
2101
1939
1804
1744
1799
1949
2134
2221
2182
2034
1865
1771
1792
1937
2141
2285
2308
2205
2037
1903
1872
1963
2130
2282
2320
2250
2114
1969
1915
1971
2107
2256
2334
2304
2181
2012
1899
1910
2037
2224
2333
2306
2202
2032
1895
1855
1930
2099
2250
2286
2203
2038
1886
1809
1854
1987
2153
2214
2138
1975
1808
1703
1713
1835
1994
2121
2115
1986
1824
1694
1675
1759
1926
2074
2099
2023
1840
1691
1654
1733
1889
2059
2116
2062
1904
1742
1648
1673
1806
1983
2100
2088
1959
1802
1673
1653
1748
1935
2091
2129
2053
1906
1762
1707
1775
1943
2137
2206
2129
1969
1810
1718
1744
1889
2078
2203
2195
2078
1913
1777
1743
1824
2039
2222
2256
2160
2000
1855
1776
1804
1949
2125
2215
2185
2064
1926
1847
1872
2002
2181
2288
2276
2158
2000
1890
1874
1987
2178
2338
2378
2292
2128
1968
1907
2002
2218
2398
2454
2384
2224
2039
1937
1957
2082
2245
2342
2320
2213
2046
1905
1862
1938
2109
2259
2311
2237
2095
1955
1895
1947
2115
2251
2291
2221
2075
1929
1845
1875
2012
2195
2314
2298
2158
1968
1826
1798
1874
2015
2137
2160
2071
1920
1806
1791
1905
2127
2358
2479
2465
2352
2225
2144
2137
2213
2285
2256
2089
1792
1456
1206
1119
1191
1360
1515
1566
1487
1360
1258
1254
1385
1633
1879
2012
2003
1881
1751
1678
1709
1837
2025
2154
2154
2032
1870
1731
1708
1791
1971
2134
2161
2085
1907
1753
1697
1744
1904
2096
2179
2143
1997
1839
1734
1748
1879
2065
2182
2165
2046
1887
1766
1751
1840
1982
2121
2150
2069
1926
1799
1759
1823
1983
2160
2228
2162
2005
1841
1754
1776
1920
2104
2224
2224
2112
1945
1824
1804
1910
2093
2229
2242
2160
2009
1863
1809
1877
2063
2235
2286
2209
2063
1904
1826
1851
1984
2161
2270
2253
2115
1938
1813
1789
1859
2017
2163
2192
2106
1963
1813
1751
1807
1950
2091
2153
2097
1938
1756
1643
1639
1763
1931
2029
2000
1872
1685
1554
1529
1634
1810
1962
1999
1919
1776
1648
1587
1637
1792
1955
2013
1951
1813
1661
1554
1570
1688
1845
1957
1965
1881
1735
1616
1600
1702
1877
2032
2069
1969
1815
1677
1607
1659
1825
1986
2064
2009
1871
1717
1635
1665
1808
1970
2070
2047
1936
1777
1660
1658
1774
1943
2087
2106
2030
1889
1763
1713
1776
1932
2100
2174
2122
1979
1838
1746
1767
1903
2089
2214
2208
2100
1935
1795
1764
1863
2039
2208
2256
2177
2030
1895
1856
1921
2093
2262
2330
2290
2175
2019
1929
1930
2043
2215
2339
2337
2210
2036
1907
1882
1975
2159
2308
2337
2243
2094
1931
1870
1923
2082
2246
2315
2253
2105
1941
1847
1865
2014
2210
2329
2304
2170
1984
1842
1820
1922
2102
2259
2288
2194
2038
1877
1783
1808
1939
2121
2213
2179
2064
1963
1947
2055
2261
2507
2671
2672
2557
2383
2199
2071
2019
2028
2006
1867
1629
1383
1185
1126
1223
