2148
2029
1911
1904
1989
2117
2198
2192
2096
1962
1857
1841
1898
2006
2127
2145
2077
1966
1872
1834
1861
1957
2086
2134
2081
1951
1821
1745
1769
1858
1989
2081
2072
1984
1872
1790
1781
1853
1975
2096
2139
2105
1990
1878
1836
1866
1968
2075
2127
2091
1983
1873
1799
1805
1894
2008
2095
2097
2036
1933
1838
1798
1834
1975
2096
2112
2019
1883
1774
1726
1761
1858
1978
2032
2000
1899
1824
1777
1812
1907
2041
2127
2113
2011
1879
1787
1774
1839
1960
2079
2117
2065
1966
1903
1877
1938
2062
2170
2192
2113
1956
1779
1633
1535
1527
1552
1535
1481
1360
1244
1169
1194
1315
1492
1647
1712
1687
1631
1583
1594
1683
1831
1971
2037
2014
1930
1841
1786
1813
1918
2032
2096
2081
1983
1854
1753
1742
1821
1962
2086
2106
2035
1922
1807
1758
1798
1919
2039
2111
2086
1981
1867
1813
1841
1942
2064
2145
2131
2059
1947
1873
1884
1974
2126
2226
2224
2134
2000
1890
1867
1935
2075
2210
2270
2231
2140
2032
1984
2017
2125
2243
2303
2287
2197
2083
1990
1983
2058
2187
2292
2306
2226
2109
1996
1958
2005
2130
2219
2223
2138
1990
1858
1787
1806
1891
2007
2094
2069
1965
1845
1746
1740
1811
1936
2047
2057
1981
1878
1796
1753
1786
1893
2017
2055
1991
1874
1758
1705
1715
1821
1942
2027
2015
1922
1821
1754
1744
1825
1954
2061
2064
1987
1872
1781
1744
1786
1908
2021
2064
1994
1893
1783
1737
1778
1878
1994
2032
1969
1847
1703
1646
1650
1730
1862
1957
1968
1893
1772
1669
1648
1709
1839
1962
1991
1931
1819
1703
1646
1676
1779
1903
1957
1909
1808
1695
1613
1600
1677
1803
1905
1909
1843
1744
1670
1671
1759
1905
2039
2096
2037
1919
1791
1701
1664
1675
1674
1616
1472
1305
1149
1052
1061
1171
1331
1473
1511
1478
1407
1367
1406
1529
1711
1885
1968
1936
1840
1732
1685
1712
1814
1938
2000
1963
1854
1743
1674
1697
1790
1925
2033
2055
1980
1862
1759
1744
1808
1936
2064
2104
2032
1904
1794
1753
1797
1927
2058
2129
2106
1995
1879
1807
1808
1904
2055
2171
2167
2074
1938
1879
1883
1968
2111
2230
2263
2206
2097
1991
1965
2019
2145
2279
2351
2318
2211
2096
2014
2031
2125
2254
2347
2330
2241
2113
2005
1974
2031
2117
2225
2254
2175
2032
1904
1839
1860
1958
2076
2112
2055
1935
1816
1744
1757
1839
1953
2034
2022
1935
1799
1694
1667
1719
1856
1968
2007
1946
1853
1762
1728
1773
1879
2002
2069
2019
1917
1802
1716
1717
1807
1940
2047
2057
1966
1856
1786
1785
1842
1941
2045
2069
2001
1879
1759
1702
1733
1841
1950
1989
1942
1840
1727
1655
1687
1809
1974
2105
2126
2066
1940
1874
1872
1963
2107
2224
2234
2151
2020
1911
1856
1883
1986
2116
2167
2109
1989
1858
1776
1782
1874
2009
2107
2090
1985
1877
1811
1834
1947
2134
2298
2346
2278
2148
2027
1961
1959
2007
2055
1991
1806
1567
1347
1216
1217
1328
1494
1601
1619
1567
1483
1451
1489
1628
1827
1984
2037
1998
1889
1799
1786
1859
2000
2139
2193
2144
2023
1895
1814
1823
1924
2063
2147
2140
2047
1926
1847
1853
1930
2064
2162
2185
2128
2025
1899
1857
1915
2039
2179
2225
2175
2064
1959
1897
1919
2030
2165
2271
2277
2201
2091
2005
1995
2069
2191
2304
2320
2256
2157
2069
2045
2114
2245
2383
2433
2375
2255
2137
2081
2102
2202
2330
2402
2375
2286
2164
2067
2045
2124
2245
2337
2338
2242
2096
1968
1929
1983
2099
2206
2239
2166
2025
1882
1808
1833
1929
2055
2117
2079
1968
1826
1742
1732
1809
1937
2046
2062
1968
1843
1745
1718
1777
1917
2054
2129
2092
1968
1839
1761
1767
1857
1995
2093
2089
1997
1884
1808
1806
1881
2007
2115
2131
2058
1910
1791
1743
1788
1907
2031
2070
2003
1882
1755
1686
1720
1821
1966
2034
1999
1895
1770
1679
1679
1769
1910
2013
2019
1937
1799
1703
1673
1742
1887
2013
2060
1995
1883
1762
1686
1702
1797
1911
1968
1923
1821
1701
1631
1652
1774
1947
2101
2141
2087
1974
1865
1813
1842
1933
2003
1950
1753
1501
1266
1127
1102
1200
1347
1455
1466
1399
1306
1257
1296
1433
1641
1790
1847
1830
1750
1693
1697
1775
1917
2043
2093
2032
1919
1790
1735
1760
1869
1991
2057
2019
1914
1805
1729
1735
1823
1950
2045
2037
1955
1836
1745
1739
1808
1938
2078
2121
2071
1961
1861
1821
1863
1977
2097
2153
2113
2011
1896
1855
1892
2000
2160
2263
2271
2189
2071
1982
1962
2032
2183
2320
2379
2321
2199
2073
2011
2058
2176
2316
2387
2363
2269
2141
2046
2015
2086
2206
2289
2271
2155
2003
1891
1858
1917
2034
2147
2172
2102
1973
1834
1760
1797
1921
2085
2152
2099
1984
1861
1778
1781
1869
1989
2085
2079
1991
1872
1786
1771
1839
1952
2047
2069
2005
1891
1792
1749
1789
1883
2033
2098
2065
1957
1835
1755
1776
1883
2021
2122
2097
1971
1840
1750
1738
1808
1940
2064
2078
1984
1854
1726
1658
1701
1804
1927
1981
1937
1830
1719
1659
1674
1776
1909
2000
1974
1857
1719
1616
1598
1669
1823
1957
1971
1885
1759
1654
1617
1673
1786
1912
1962
1901
1776
1655
1601
1651
1789
1973
2105
2121
2047
1939
1844
1813
1870
1977
2045
1990
1807
1554
1318
1171
1168
1272
1403
1477
1456
1367
1290
1257
1312
1468
1682
1831
1874
1830
1754
1697
1711
1808
1979
2083
2106
2025
1889
1769
1712
1765
1918
2066
2135
2102
1992
1863
1777
1776
1872
2015
2126
2113
2005
1874
1786
1785
1872
2019
2150
2176
2112
1989
1894
1872
1938
2071
2189
2225
2163
2035
1923
1871
1910
2035
2195
2299
2289
2204
2099
2002
1998
2085
2238
2368
2400
2339
2231
2119
2078
2112
2237
2363
2416
2367
2241
2110
2032
2063
2159
2282
2352
2330
2223
2071
1959
1949
2015
2139
2240
2253
2169
2023
1895
1838
1871
1990
2123
2160
2096
1977
1865
1813
1857
1983
2128
2177
2132
2015
1901
1811
1805
1877
2018
2128
2126
2031
1891
1778
1728
1776
1911
2055
2105
2059
1941
1827
1769
1807
1920
2079
2128
2101
1983
1840
1741
1728
1805
1936
2028
2019
1941
1831
1727
1703
1767
1899
2022
2064
1994
1871
1751
1685
1711
1810
1935
1995
1968
1872
1758
1672
1673
1757
1905
2032
2044
1967
1845
1741
1692
1739
1856
1968
2000
1937
1799
1677
1626
1674
1824
2009
2145
2154
2069
1962
1893
1879
1963
2074
2097
1973
1741
1461
1232
1127
1148
1261
1384
1454
1456
1389
1314
1299
1387
1559
1756
1875
1892
1835
1747
1708
1726
1821
1967
2089
2101
2015
1879
1776
1741
1804
1937
2082
2134
2091
1968
1856
1797
1819
1936
2071
2138
2112
2004
1886
1822
1841
1947
2096
2179
2162
2082
1943
1850
1819
1873
2000
2131
2186
2131
2018
1918
1874
1939
2084
2227
2300
2267
2167
2064
1986
2002
2096
2234
2345
2359
2288
2174
2068
2046
2115
2258
2387
2428
2358
2234
2113
2053
2086
2191
2307
2363
2305
2187
2054
1955
1950
2032
2165
2251
2240
2140
1989
1872
1843
1904
2023
2149
2182
2118
1994
1873
1805
1825
1922
2043
2112
2071
1957
1845
1783
1792
1878
1997
2085
2075
1979
1856
1753
1734
1815
1961
2089
2118
2047
1930
1821
1776
1814
1931
2059
2112
2068
1955
1825
1742
1737
1809
1921
2005
1981
1881
1761
1671
1658
1735
1872
1984
2006
1941
1817
1687
1639
1687
1804
1938
2004
1969
1868
1744
1670
1689
1783
1914
2001
1997
1903
1744
1600
1525
1535
1633
1722
1728
1648
1510
1402
1378
1462
1621
1807
1907
1922
1857
1776
1714
1719
1783
1840
1825
1680
1439
1180
989
923
981
1118
1259
1307
1264
1190
1129
1133
1219
1391
1579
1696
1710
1654
1561
1507
1535
1678
1835
1921
1891
1785
1660
1569
1553
1631
1776
1904
1929
1870
1774
1659
1616
1671
1792
1917
1973
1943
1851
1742
1679
1711
1814
1941
2027
2011
1918
1798
1727
1731
1825
1974
2097
2122
2054
1927
1823
1786
1826
1954
2109
2181
2146
2053
1951
1901
1938
2065
2223
2334
2339
2261
2145
2054
2039
2117
2256
2374
2394
2326
2218
2114
2064
2090
2192
2295
2320
2245
2109
1971
1893
1907
2000
2125
2186
2151
2039
1894
1776
1743
1802
1920
2027
2039
1968
1848
1745
1712
1767
1871
2011
2067
2006
1904
1787
1728
1750
1842
1962
2034
2017
1929
1823
1740
1746
1823
1954
2090
2114
2043
1935
1834
1796
1845
1968
2077
2103
2032
1911
1791
1719
1741
1847
1980
2060
2023
1903
1761
1659
1644
1724
1855
1957
1968
1885
1758
1637
1598
1643
1757
1869
1911
1871
1765
1660
1607
1643
1757
1903
1975
1947
1845
1731
1642
1619
1668
1766
1847
1841
1771
1694
1617
1631
1740
1918
2087
2167
2137
2034
1919
1840
1814
1839
1837
1762
1581
1337
1130
1015
1030
1140
1307
1450
1500
1462
1391
1329
1349
1479
1666
1851
1946
1937
1861
1764
1716
1755
1873
2000
2069
2032
1920
1813
1749
1769
1850
1974
2075
2083
1997
1875
1783
1758
1810
1946
2064
2102
2064
1969
1862
1805
1845
1965
2111
2175
2128
2015
1890
1815
1831
1926
2076
2189
2195
2122
2011
1927
1894
1953
2102
2239
2292
2256
2163
2065
2021
2078
2205
2347
2427
2409
2302
2185
2102
2113
2211
2357
2473
2473
2387
2275
2175
2123
2163
2268
2368
2384
2302
2166
2032
1966
1980
2081
2197
2253
2202
2079
1927
1841
1851
1936
2064
2158
2149
2045
1930
1808
1780
1847
1975
2096
2113
2035
1919
1813
1766
1802
1908
2028
2112
2083
1969
1845
1755
1771
1869
2011
2132
2155
2066
1951
1845
1808
1859
1984
2103
2129
2059
1927
1806
1745
1771
1871
1982
2031
1982
1870
1745
1667
1679
1762
1879
1968
1958
1867
1744
1658
1634
1691
1807
1903
1926
1855
1731
1631
1590
1642
1765
1903
1968
1935
1813
1678
1585
1569
1637
1767
1856
1861
1806
1744
1714
1759
1889
2076
2218
2243
2167
2017
1829
1657
1535
1488
1467
1418
1293
1131
997
949
1005
1149
1328
1467
1507
1478
1434
1424
1473
1611
1797
1967
2025
1983
1882
1793
1762
1819
1936
2066
2126
2093
1985
1872
1806
1819
1897
2015
2112
2112
2030
1922
1843
1822
1875
2011
2132
2160
2083
1966
1867
1840
1918
2045
2161
2208
2160
2023
1893
1819
1857
1979
2134
2224
2220
2135
2017
1938
1929
2011
2151
2283
2323
2269
2170
2075
2039
2101
2226
2371
2444
2417
2320
2209
2147
2161
2253
2379
2478
2468
2381
2246
2149
2124
2179
2291
2384
2384
2304
2171
2038
1978
2003
2109
2208
2234
2160
2029
1905
1839
1855
1959
2087
2155
2119
2014
1891
1804
1792
1875
1999
2110
2125
2062
1936
1826
1790
1837
1955
2085
2135
2085
1968
1863
1810
1830
1935
2064
2160
2142
2039
1919
1829
1815
1872
1983
2096
2109
2017
1873
1746
1682
1739
1856
1983
2029
1968
1841
1717
1653
1669
1771
1910
2011
2000
1899
1767
1680
1680
1776
1893
2023
2027
1936
1787
1671
1653
1719
1837
1940
1967
1890
1771
1642
1535
1573
1695
1857
1985
2011
1968
1933
1918
1942
2034
2151
2205
2145
1949
1681
1413
1207
1104
1122
1195
1241
1220
1154
1074
1050
1114
1270
1465
1623
1680
1657
1621
1611
1652
1760
1907
2031
2074
2031
1921
1818
1779
1824
1936
2059
2109
2064
1962
1861
1814
1847
1975
2114
2177
2128
2007
1883
1818
1840
1941
2082
2176
2180
2096
1971
1872
1847
1920
2064
2199
2255
2207
2101
2005
1966
2001
2109
2237
2307
2292
2210
2112
2039
2047
2148
2302
2410
2415
2346
2251
2199
2193
2250
2365
2480
2510
2442
2311
2199
2154
2194
2304
2430
2493
2441
2323
2197
2121
2122
2189
2291
2369
2359
2267
2129
2012
1971
2019
2134
2235
2256
2179
2055
1936
1881
1909
2012
2131
2190
2149
2047
1935
1867
1885
1968
2096
2181
2174
2066
1913
1792
1743
1824
1963
2106
2161
2115
2007
1917
1875
1904
2000
2117
2181
2149
2023
1902
1825
1823
1897
2025
2119
2114
2020
1885
1774
1729
1787
1914
2030
2057
1982
1871
1763
1715
1734
1835
1952
2000
1964
1871
1764
1691
1699
1778
1898
1984
1981
1889
1773
1674
1648
1696
1792
1890
1903
1809
1659
1558
1535
1617
1787
1977
2115
2148
2109
2021
1972
1982
2033
2065
1997
1821
1564
1286
1075
982
1040
1180
1328
1392
1349
1261
1181
1170
1275
1463
1694
1839
1872
1814
1757
1725
1776
1888
2014
2106
2080
1978
1855
1772
1774
1872
2000
2126
2157
2085
1957
1840
1791
1834
1938
2109
2166
2128
2021
1903
1838
1852
1948
2090
2183
2178
2096
1980
1893
1882
1950
2090
2217
2245
2177
2066
1958
1926
1978
2103
2240
2313
2302
2213
2115
2057
2074
2177
2313
2411
2413
2332
2224
2153
2150
2219
2337
2439
2474
2416
2293
2178
2121
2160
2271
2389
2450
2409
2286
2141
2061
2047
2114
2219
2288
2258
2147
2017
1925
1904
1968
2081
2171
2176
2093
1973
1882
1850
1890
1992
2114
2167
2118
2000
1893
1827
1856
1957
2090
2169
2147
2053
1936
1863
1859
1942
2079
2179
2193
2122
1994
1882
1839
1884
1989
2114
2171
2121
1990
1859
1791
1807
1901
2010
2091
2047
1931
1794
1691
1678
1749
1895
2012
2026
1949
1825
1718
1681
1715
1849
1968
1997
1939
1842
1730
1674
1690
1791
1931
2018
1999
1898
1762
1647
1603
1655
1777
1872
1888
1827
1735
1664
1677
1787
1983
2153
2256
2242
2131
1994
1885
1819
1797
1785
1697
1519
1311
1136
1040
1053
1168
1339
1478
1527
1488
1423
1396
1447
1581
1778
1954
2031
2003
1904
1801
1744
1767
1867
1995
2087
2079
1997
1885
1806
1808
1890
2032
2139
2143
2064
1936
1832
1808
1868
1988
2110
2158
2111
1995
1889
1827
1856
1971
2122
2208
2187
2097
1987
1920
1936
2022
2161
2256
2269
2207
2096
2000
1979
2047
2187
2308
2346
2289
2177
2073
2021
2071
2213
2359
2429
2390
2277
2155
2077
2069
2151
2291
2398
2399
2320
2203
2109
2080
2119
2237
2351
2373
2299
2179
2070
1996
2000
2093
2219
2285
2242
2119
1981
1883
1877
1961
2096
2194
2192
2112
1999
1901
1862
1904
2021
2133
2155
2080
1959
1853
1809
1849
1964
2098
2176
2133
2017
1882
1799
1807
1900
2054
2157
2162
2071
1942
1846
1830
1889
2002
2113
2139
2069
1936
1806
1738
1754
1840
1943
1997
1958
1855
1730
1648
1664
1765
1904
2003
2001
1916
1805
1690
1648
1686
1808
1920
1953
1887
1776
1662
1602
1641
1767
1887
1961
1927
1819
1684
1587
1581
1654
1790
1905
1952
1904
1840
1795
1829
1949
2119
2240
2256
2172
2006
1799
1632
1518
1478
1473
1455
1377
1271
1186
1158
1211
1328
1498
1646
1686
1637
1593
1553
1585
1712
1887
2023
2071
2013
1904
1805
1765
1801
1907
2038
2096
2045
1962
1863
1791
1809
1894
2019
2102
2087
1991
1873
1791
1783
1868
2014
2131
2160
2105
1996
1895
1851
1888
2003
2129
2194
2165
2074
1958
1903
1927
2037
2183
2298
2303
2198
2065
1968
1947
2011
2158
2294
2345
2289
2163
2044
1999
2037
2160
2288
2351
2326
2224
2105
2035
2047
2135
2275
2379
2378
2288
2165
2077
2070
2135
2256
2342
2331
2228
2107
1979
1934
1971
2077
2187
2224
2167
2034
1907
1851
1882
1985
2106
2164
2121
2009
1887
1787
1774
1854
1993
2121
2161
2097
1968
1856
1811
1869
1984
2108
2159
2106
1987
1871
1804
1834
1936
2080
2161
2135
2026
1914
1830
1810
1871
1981
2074
2073
1984
1860
1763
1733
1783
1903
2000
2032
2002
1914
1814
1751
1771
1855
1981
2053
2019
1925
1824
1714
1715
1799
1949
2075
2096
2030
1910
1797
1756
1801
1904
2000
2020
1949
1823
1701
1616
1644
1763
1907
2026
2032
1973
1889
1854
1887
1984
2096
2154
2096
1933
1715
1490
1333
1290
1350
1455
1491
1465
1408
1333
1302
1351
1479
1651
1790
1819
1783
1723
1682
1712
1820
1957
2057
2069
2003
1899
1818
1795
1844
1967
2073
2128
2082
1982
1876
1814
1839
1941
2070
2151
2130
2038
1935
1872
1872
1955
2079
2161
2158
2073
1955
1844
1819
1891
2020
2163
2223
2173
2066
1950
1907
1946
2043
2170
2247
2227
2139
2021
1943
1943
2030
2187
2331
2359
2297
2191
2099
2064
2109
2224
2344
2401
2358
2256
2147
2075
2090
2187
2315
2385
2347
2239
2117
2021
2000
2061
2162
2244
2241
2159
2039
1948
1935
1983
2095
2183
2204
2146
2032
1913
1847
1867
1957
2073
2142
2119
2031
1922
1848
1858
1950
2058
2134
2123
2028
1897
1788
1774
1834
1963
2081
2112
2075
1968
1862
1803
1837
1943
2059
2119
2066
1942
1829
1771
1785
1882
2002
2075
2070
1999
1874
1769
1735
1795
1931
2067
2106
2034
1906
1779
1737
1783
1898
2021
2097
2070
1966
1846
1747
1735
1799
1969
2078
2075
1982
1840
1726
1687
1745
1890
2005
2054
1990
1879
1770
1727
1797
1938
2107
2203
2189
2112
2003
1933
1910
1959
2033
2047
1949
1747
1503
1301
1207
1233
1365
1519
1591
1522
1426
1345
1338
1408
1580
1790
1930
1958
1905
1817
1776
1808
1917
2066
2147
2140
2042
1921
1838
1821
1891
2021
2137
2160
2091
1967
1863
1840
1898
2027
2163
2206
2144
2020
1913
1855
1869
1978
2131
2227
2219
2114
1982
1890
1881
1946
2082
2193
2239
2183
2069
1978
1949
1998
2102
2227
2299
2273
2173
2047
1980
2003
2114
2248
2340
2320
2234
2115
2042
2033
2112
2245
2375
2414
2341
2213
2096
2055
2109
2224
2341
2386
2334
2219
2082
1988
1984
2065
2187
2259
2245
2151
2023
1927
1895
1951
2079
2195
2208
2127
1987
1867
1803
1828
1940
2069
2128
2089
1984
1877
1810
1827
1915
2053
2130
2112
2017
1898
1808
1809
1894
2020
2122
2128
2035
1933
1840
1823
1902
2016
2135
2171
2102
1968
1831
1756
1776
1886
2020
2102
2079
1970
1843
1738
1726
1789
1917
2022
2037
1969
1856
1737
1684
1733
1859
1990
2060
2021
1914
1807
1730
1744
1851
1977
2047
2032
1939
1831
1745
1734
1825
1931
2032
2043
1956
1825
1719
1695
1783
1941
2113
2192
2171
2090
1987
1920
1918
1973
2018
1987
1846
1623
1398
1237
1191
1261
1407
1535
1586
1534
1454
1387
1395
1497
1689
1865
1966
1954
1874
1802
1766
1808
1931
2082
2160
2117
1998
1872
1789
1790
1879
2027
2162
2192
2114
1977
1871
1819
1869
2000
2125
2163
2101
1979
1856
1779
1808
1933
2086
2175
2154
2054
1930
1843
1842
1931
2063
2175
2187
2117
2003
1913
1878
1954
2127
2278
2331
2263
2145
2031
1971
1995
2110
2258
2350
2333
2225
2112
2033
2041
2146
2285
2384
2397
2301
2174
2055
2017
2071
2194
2305
2320
2254
2128
1982
1904
1949
2086
2235
2303
2251
2114
1961
1842
1827
1907
2037
2145
2159
2057
1915
1807
1789
1857
2002
2143
2176
2096
1957
1820
1760
1808
1925
2064
2143
2110
1984
1843
1744
1751
1847
2000
2128
2135
2053
1937
1841
1817
1883
2014
2143
2192
2131
2007
1884
1808
1836
1936
2066
2140
2101
1978
1850
1767
1764
1870
2009
2125
2126
2021
1872
1759
1733
1793
1919
2033
2064
1991
1854
1762
1713
1778
1920
2055
2121
2075
1954
1815
1728
1723
1799
1926
2015
1999
1892
1757
1648
1628
1714
1877
2039
2138
2123
2032
1936
1893
1923
1999
2077
2064
1936
1714
1466
1274
1201
1264
1407
1535
1587
1522
1421
1334
1324
1415
1600
1781
1874
1872
1799
1731
1701
1761
1896
2034
2111
2079
1990
1883
1833
1850
1946
2075
2160
2151
2063
1936
1856
1850
1918
2061
2179
2207
2128
1996
1888
1842
1897
2018
2145
2179
2117
1987
1866
1798
1809
1909
2064
2149
2149
2065
1952
1867
1869
1947
2084
2217
2256
2186
2077
1984
1954
2011
2131
2257
2320
2275
2182
2078
2015
2033
2139
2283
2369
2354
2266
2175
2096
2066
2113
2224
2323
2329
2233
2096
1984
1955
1999
2117
2235
2267
2211
2093
1968
1887
1890
1970
2095
2179
2163
2064
1923
1821
1788
1850
1980
2093
2097
2021
1904
1779
1728
1778
1905
2045
2097
2044
1935
1825
1772
1805
1907
2039
2125
2095
1991
1856
1776
1776
1856
1985
2103
2118
2054
1959
1872
1829
1862
1974
2109
2160
2096
1950
1803
1727
1744
1840
1969
2069
2062
1968
1856
1790
1795
1875
2006
2101
2098
1997
1861
1743
1706
1759
1873
1997
2047
1995
1886
1776
1701
1703
1793
1914
2000
1991
1902
1777
1665
1638
1695
1803
1901
1907
1838
1750
1683
1690
1783
1949
2119
2197
2160
2054
1922
1840
1829
1855
1895
1856
1715
1514
1318
1199
1171
1264
1424
1570
1619
1594
1490
1424
1437
1535
1731
1916
2011
1991
1918
1823
1779
1826
1937
2077
2149
2110
2001
1899
1825
1815
1882
2000
2106
2116
2045
1933
1833
1815
1902
2038
2159
2178
2117
2022
1919
1853
1863
1955
2073
2137
2114
2032
1931
1860
1869
1951
2094
2201
2219
2149
2035
1956
1933
1995
2122
2240
2271
2224
2128
2032
1989
2032
2148
2288
2375
2365
2262
2129
2054
2059
2134
2266
2370
2384
2304
2187
2086
2043
2098
2220
2333
2363
2288
2160
2012
1937
1952
2046
2167
2239
2205
2091
1941
1829
1811
1888
2013
2113
2111
2032
1904
1803
1776
1835
1965
2098
2132
2054
1923
1807
1755
1776
1891
2019
2096
2047
1934
1819
1753
1765
1865
2003
2107
2112
2019
1902
1797
1776
1825
1941
2056
2096
2042
1943
1845
1806
1839
1949
2078
2131
2091
2002
1887
1793
1775
1839
1946
2034
2033
1953
1839
1735
1710
1764
1898
2009
2056
1987
1854
1730
1670
1698
1807
1945
2016
1978
1854
1738
1661
1679
1770
1902
2002
2005
1929
1813
1715
1680
1730
1843
1935
1946
1872
1751
1651
1635
1726
1903
2101
2218
2223
2142
2026
1935
1913
1931
1951
1920
1781
1573
1351
1195
1143
1203
1343
1492
1554
1510
1424
1344
1343
1429
1619
1814
1936
1942
1877
1786
1742
1771
1870
2000
2099
2087
1989
1875
1787
1781
1858
1986
2099
2128
2064
1941
1831
1776
1813
1940
2069
2137
2107
2002
1891
1824
1841
1949
2097
2171
2143
2046
1939
1850
1845
1929
2064
2177
2211
2139
2020
1914
1891
1959
2106
2239
2290
2245
2147
2047
1995
2010
2110
2251
2343
2340
2256
2141
2058
2047
2131
2268
2372
2397
2333
2215
2103
2043
2074
2181
2294
2339
2286
2179
2064
1984
1979
2046
2159
2223
2192
2082
1936
1835
1814
1889
2022
2143
2166
2081
1959
1841
1783
1814
1920
2039
2098
2054
1936
1823
1749
1773
1872
1997
2096
2083
1981
1854
1762
1755
1839
1967
2075
2109
2036
1915
1807
1772
1812
1936
2064
2117
2067
1959
1844
1783
1802
1901
2031
2107
2094
1995
1871
1779
1762
1839
1957
2063
2064
1979
1869
1774
1728
1776
1898
1996
2042
1991
1867
1747
1679
1705
1814
1953
2033
1997
1893
1781
1694
1690
1767
1885
1983
1984
1904
1790
1714
1697
1754
1866
1962
1984
1910
1785
1652
1586
1616
1755
1929
2062
2096
2047
1967
1914
1921
2000
2113
2173
2127
1962
1727
1472
1296
1247
1311
1410
1456
1422
1342
1265
1246
1318
1472
1651
1779
1814
1776
1706
1663
1694
1806
1943
2039
2039
1970
1890
1798
1777
1837
1953
2071
2110
2044
1930
1821
1773
1799
1907
2047
2109
2071
1969
1851
1776
1781
1878
2020
2134
2159
2086
1963
1870
1857
1947
2058
2157
2189
2126
2009
1901
1854
1898
2017
2161
2233
2199
2106
1994
1936
1955
2054
2198
2309
2329
2263
2166
2077
2059
2125
2258
2377
2419
2370
2261
2159
2113
2154
2252
2370
2427
2387
2290
2177
2085
2068
2124
2219
2288
2261
2175
2047
1951
1918
1953
2053
2156
2187
2128
2000
1873
1813
1834
1927
2047
2117
2096
1989
1872
1793
1806
1885
2000
2087
2091
2012
1899
1808
1777
1837
1955
2070
2095
2029
1920
1815
1769
1807
1914
2026
2079
2032
1933
1822
1749
1761
1865
2011
2119
2118
2026
1917
1843
1835
1902
2013
2117
2133
2060
1936
1825
1761
1782
1882
1999
2063
2023
1933
1797
1721
1733
1818
1942
2032
2031
1946
1824
1724
1697
1756
1870
1991
2014
1955
1843
1746
1700
1727
1829
1936
1994
1958
1845
1729
1650
1651
1727
1840
1915
1920
1871
1787
1733
1777
1894
2095
2256
2311
2256
2129
1984
1853
1776
1749
1713
1609
1423
1232
1102
1057
1111
1255
1441
1590
1616
1557
1481
1446
1476
1610
1790
1955
2013
1978
1885
1803
1777
1839
1966
2093
2135
2083
1965
1849
1777
1797
1901
2033
2128
2128
2055
1953
1883
1867
1931
2061
2160
2160
2079
1957
1859
1831
1887
2014
2146
2191
2141
2032
1934
1884
1921
2027
2173
2262
2263
2182
2080
2000
2012
2108
2231
2334
2350
2291
2195
2115
2101
2160
2285
2403
2463
2425
2323
2207
2139
2171
2287
2412
2483
2479
2386
2270
2177
2159
2220
2333
2430
2435
2351
2214
2096
2039
2080
2178
2274
2303
2241
2122
1994
1920
1938
2033
2155
2213
2181
2081
1956
1869
1851
1923
2037
2131
2135
2060
1933
1824
1792
1850
1975
2096
2132
2080
1975
1872
1806
1822
1918
2047
2127
2118
2023
1911
1829
1820
1897
2023
2117
2102
2019
1921
1861
1856
1915
2032
2145
2175
2112
1988
1883
1833
1862
1945
2057
2101
2058
1947
1824
1744
1744
1830
1934
2032
2039
1964
1838
1737
1710
1774
1879
1981
2011
1953
1837
1724
1669
1701
1808
1939
2029
2000
1890
1771
1702
1711
1788
1899
1968
1951
1847
1707
1603
1600
1702
1872
2063
2178
2192
2148
2070
2031
2063
2135
2198
2160
1974
1698
1396
1161
1056
1090
1214
1331
1362
1326
1249
1197
1217
1323
1511
1708
1836
1862
1806
1745
1725
1777
1903
2032
2112
2095
1996
1895
1823
1830
1917
2047
2158
2155
2057
1929
1829
1808
1875
2000
2113
2140
2097
1997
1904
1863
1906
2010
2147
2224
2192
2085
1963
1887
1904
2006
2157
2256
2257
2176
2062
1951
1925
1995
2141
2256
2305
2270
2176
2087
2063
2109
2218
2347
2431
2432
2357
2255
2183
2197
2290
2425
2518
2517
2437
2325
2237
2214
2267
2385
2503
2531
2466
2348
2225
2161
2175
2254
2353
2399
2347
2223
2085
1980
1969
2036
2153
2224
2210
2115
1985
1885
1859
1918
2041
2163
2190
2133
2000
1885
1838
1868
1969
2095
2143
2101
2001
1904
1829
1826
1907
2036
2128
2115
2017
1891
1795
1781
1857
1991
2099
2128
2064
1954
1858
1828
1881
2001
2128
2193
2160
2057
1926
1853
1849
1936
2064
2142
2128
2029
1901
1803
1778
1836
1952
2047
2064
1981
1861
1744
1697
1738
1840
1957
2005
1959
1858
1742
1680
1696
1782
1905
1997
2001
1921
1814
1726
1712
1766
1877
1982
2003
1922
1793
1679
1616
1635
1735
1870
1962
1959
1905
1862
1871
1958
2105
2254
2329
2285
2135
1905
1677
1493
1390
1358
1344
1291
1194
1067
1007
1010
1104
1269
1453
1575
1604
1565
1515
1521
1618
1769
1933
2069
2078
1998
1878
1793
1781
1853
1984
2111
2150
2087
1967
1859
1808
1856
1963
2081
2135
2096
1973
1867
1803
1849
1965
2112
2198
2180
2086
1959
1865
1856
1927
2044
2155
2174
2119
2018
1936
1908
1959
2073
2186
2237
2194
2112
2010
1968
1999
2118
2257
2343
2333
2256
2159
2094
2099
2186
2307
2409
2421
2352
2256
2179
2177
2245
2366
2481
2518
2469
2346
2230
2162
2170
2246
2354
2411
2373
2272
2155
2047
2030
2093
2194
2271
2256
2155
2009
1887
1834
1857
1964
2084
2125
2074
1955
1840
1771
1784
1873
2007
2091
2079
1985
1866
1789
1783
1860
1984
2084
2082
1997
1874
1776
1750
1812
1926
2047
2093
2033
1923
1814
1763
1794
1890
2021
2111
2098
2000
1904
1834
1837
1904
2021
2123
2124
2028
1889
1791
1766
1812
1904
2019
2042
1968
1843
1751
1704
1730
1836
1957
2016
1983
1883
1766
1683
1674
1744
1863
1953
1949
1875
1776
1683
1662
1716
1835
1943
1979
1925
1815
1731
1670
1679
1762
1861
1907
1861
1776
1681
1642
1695
1840
2037
2192
2256
2219
2126
2007
1937
1915
1904
1859
1712
1455
1185
978
891
932
1072
1251
1361
1374
1325
1248
1231
1299
1456
1667
1840
1904
1872
1797
1733
1732
1815
1947
2074
2117
2063
1943
1836
1785
1813
1921
2047
2119
2096
2002
1895
1824
1837
1908
2030
2124
2115
2032
1918
1825
1808
1875
2003
2132
2192
2150
2043
1941
1900
1939
2047
2167
2231
2210
2115
2002
1941
1961
2059
2192
2288
2295
2240
2151
2078
2064
2149
2288
2411
2446
2375
2262
2167
2122
2158
2257
2395
2469
2441
2346
2251
2193
2206
2283
2391
2475
2459
2370
2239
2129
2094
2135
2242
2329
2327
2232
2093
1967
1903
1933
2039
2159
2204
2154
2032
1904
1818
1823
1895
2022
2109
2099
2013
1895
1799
1779
1841
1965
2079
2102
2037
1917
1825
1787
1817
1920
2032
2082
2029
1918
1798
1742
1771
1883
2022
2133
2127
2032
1919
1828
1811
1887
2019
2134
2155
2071
1927
1816
1770
1809
1920
2030
2092
2057
1951
1818
1728
1734
1831
1964
2053
2032
1945
1818
1725
1702
1761
1882
1981
1999
1924
1819
1719
1678
1721
1815
1921
1974
1936
1840
1740
1669
1680
1758
1869
1930
1896
1787
1655
1581
1599
1718
1919
2101
2188
2176
2112
2039
2009
2035
2106
2128
2033
1831
1535
1270
1085
1045
1136
1287
1407
1429
1365
1279
1232
1293
1439
1625
1785
1850
1840
1778
1710
1695
1766
1901
2020
2065
2021
1931
1840
1789
1809
1914
2043
2138
2125
2037
1926
1831
1818
1894
2022
2131
2154
2089
1968
1862
1839
1897
2030
2158
2213
2169
2063
1935
1867
1886
1983
2101
2192
2180
2109
1998
1935
1930
1999
2135
2234
2248
2180
2091
2007
1995
2043
2178
2306
2375
2352
2263
2166
2122
2159
2266
2393
2469
2451
2379
2283
2210
2215
2288
2399
2483
2480
2387
2258
2129
2082
2119
2218
2314
2342
2277
2158
2030
1965
1982
2065
2162
2209
2160
2047
1930
1853
1847
1907
2025
2118
2113
2031
1916
1812
1781
1840
1957
2064
2091
2027
1926
1817
1755
1780
1889
2020
2106
2079
1991
1895
1831
1836
1925
2015
2091
2080
1997
1907
1839
1825
1881
1994
2111
2145
2081
1949
1835
1789
1808
1904
2029
2110
2091
1991
1873
1785
1777
1847
1965
2047
2035
1949
1832
1731
1709
1766
1877
1984
2022
1955
1837
1713
1663
1698
1804
1939
1999
1964
1856
1730
1657
1678
1759
1873
1947
1936
1847
1725
1634
1641
1744
1899
2064
2138
2139
2079
1985
1943
1983
2065
2122
2076
1904
1664
1390
1187
1104
1141
1265
1396
1441
1408
1332
1280
1298
1408
1613
1784
1873
1873
1810
1744
1739
1811
1942
2067
2119
2081
1982
1874
1808
1825
1903
2006
2093
2089
2000
1877
1787
1785
1857
1978
2112
2149
2086
1958
1833
1779
1819
1936
2082
2163
2142
2047
1943
1879
1899
1982
2139
2227
2219
2142
2030
1935
1915
1980
2101
2221
2256
2204
2108
2005
1971
2013
2137
2277
2349
2322
2231
2137
2077
2091
2176
2309
2416
2421
2341
2215
2112
2091
2157
2275
2374
2378
2293
2165
2039
1985
2011
2122
2239
2299
2260
2160
2029
1941
1936
2002
2118
2194
2187
2107
1983
1889
1857
1895
2003
2126
2157
2096
1984
1881
1822
1850
1955
2065
2109
2046
1926
1809
1753
1791
1913
2047
2141
2131
2047
1920
1806
1777
1858
1961
2068
2099
2034
1936
1847
1808
1845
1955
2083
2125
2085
1971
1850
1763
1771
1865
1985
2054
2018
1930
1814
1746
1744
1808
1919
2019
2047
1984
1861
1741
1703
1746
1863
1985
2053
2002
1890
1775
1714
1745
1840
1961
2033
2023
1939
1829
1749
1725
1777
1895
1990
1997
1907
1785
1687
1691
1799
1951
2125
2205
2175
2077
1957
1881
1866
1889
1909
1875
1746
1527
1329
1179
1151
1232
1392
1535
1585
1535
1456
1386
1395
1489
1678
1853
1947
1937
1862
1775
1729
1758
1856
1983
2062
2032
1947
1833
1766
1771
1872
2003
2135
2166
2097
1989
1904
1872
1901
2002
2123
2174
2114
2000
1905
1866
1892
1985
2121
2210
2177
2075
1946
1862
1859
1921
2031
2145
2176
2128
2043
1962
1935
1980
2089
2202
2259
2224
2117
2001
1948
1989
2108
2235
2311
2303
2225
2128
2064
2091
2163
2266
2343
2345
2288
2192
2103
2071
2101
2215
2327
2368
2292
2167
2060
1984
2019
2115
2224
2275
2235
2137
2016
1936
1922
1991
2074
2142
2133
2045
1925
1838
1818
1872
1975
2091
2124
2081
1986
1895
1838
1833
1927
2061
2124
2095
1986
1855
1792
1806
1889
2017
2112
2095
1995
1892
1799
1771
1819
1933
2060
2113
2065
1953
1854
1826
1865
1953
2069
2124
2077
1970
1842
1765
1771
1859
1979
2093
2113
2039
1904
1787
1753
1803
1924
2047
2095
2018
1899
1792
1743
1775
1872
1983
2063
2022
1910
1785
1722
1742
1825
1936
2027
2023
1935
1821
1724
1687
1728
1841
1984
2063
2032
1952
1879
1851
1888
1983
2152
2201
2130
1968
1775
1611
1505
1481
1502
1527
1488
1399
1287
1211
1229
1338
1493
1653
1728
1712
1641
1585
1595
1680
1821
1970
2063
2047
1983
1879
1802
1814
1905
2032
2143
2158
2076
1967
1872
1835
1890
2015
2143
2178
2106
1983
1850
1781
1808
1934
2082
2144
2128
2032
1925
1859
1871
1939
2062
2159
2161
2076
1950
1872
1867
1936
2055
2157
2185
2125
2007
1894
1851
1904
2047
2203
2290
2270
2176
2063
1981
1991
2102
2223
2309
2303
2219
2111
2030
2029
2101
2214
2319
2346
2271
2142
2027
1970
1999
2111
2224
2271
2224
2097
1973
1873
1872
1963
2099
2183
2160
2066
1949
1859
1843
1915
2033
2131
2137
2047
1920
1808
1769
1825
1947
2064
2111
2062
1943
1840
1786
1818
1910
2018
2097
2063
1950
1834
1757
1746
1832
1979
2126
2159
2093
1954
1819
1763
1810
1936
2066
2123
2074
1936
1804
1722
1726
1811
1937
2021
2002
1911
1776
1683
1683
1774
1904
2023
2059
1983
1845
1739
1717
1776
1876
2015
2067
2004
1886
1771
1699
1726
1822
1960
2038
1998
1882
1750
1665
1671
1753
1893
2007
2035
1984
1904
1829
1813
1894
2028
2161
2209
2145
2018
1877
1775
1737
1762
1807
1765
1626
1446
1266
1167
1170
1298
1481
1646
1701
1648
1560
1485
1493
1587
1744
1904
2001
2010
1938
1840
1789
1833
1939
2080
2164
2130
2021
1897
1809
1811
1902
2027
2142
2166
2086
1954
1872
1845
1882
2007
2145
2192
2147
2058
1951
1889
1904
1994
2127
2209
2176
2074
1968
1879
1879
1959
2105
2210
2213
2138
2027
1936
1927
1995
2113
2219
2270
2234
2138
2032
1974
1997
2113
2261
2367
2370
2287
2163
2101
2119
2179
2265
2330
2323
2255
2129
2021
2000
2043
2169
2282
2318
2256
2142
2011
1937
1936
2018
2147
2224
2196
2102
1981
1874
1859
1930
2059
2156
2160
2103
1984
1888
1854
1903
2005
2118
2150
2096
1987
1897
1849
1894
2005
2143
2207
2154
2020
1879
1798
1802
1885
2013
2112
2123
2035
1923
1843
1847
1917
2041
2162
2183
2112
1989
1881
1811
1839
1936
2063
2125
2091
1983
1872
1808
1802
1872
1986
2068
2047
1959
1858
1775
1754
1824
1935
2032
2069
2015
1913
1831
1805
1823
1909
2023
2094
2041
1931
1822
1751
1773
1859
1970
2041
2019
1927
1827
1741
1744
1843
2019
2187
2260
2238
2141
2011
1919
1887
1915
1958
1926
1767
1535
1351
1243
1240
1356
1526
1652
1701
1654
1567
1488
1503
1634
1815
1982
2064
2047
1968
1876
1840
1875
1982
2112
2171
2142
2038
1931
1850
1840
1915
2061
2181
2213
2146
2006
1917
1898
1967
2095
2192
2207
2140
2032
1951
1923
1968
2081
2191
2241
2198
2096
1984
1921
1945
2054
2177
2256
2266
2193
2075
1974
1954
2015
2145
2258
2309
2257
2165
2067
2031
2079
2191
2327
2410
2371
2270
2151
2081
2095
2191
2326
2416
2391
2310
2192
2097
2080
2135
2266
2368
2382
2301
2160
2034
1978
2000
2101
2205
2243
2192
2096
1963
1909
1925
2009
2128
2192
2158
2047
1915
1822
1814
1910
2055
2165
2176
2096
1951
1855
1818
1861
1973
2103
2173
2146
2065
1969
1915
1921
2000
2115
2190
2158
2059
1943
1867
1866
1945
2064
2158
2143
2035
1925
1831
1799
1853
1962
2073
2103
2032
1914
1804
1738
1783
1914
2063
2145
2122
2015
1882
1786
1767
1829
1949
2067
2096
2045
1941
1837
1791
1827
1951
2065
2111
2047
1931
1813
1763
1789
1865
1968
2042
2015
1904
1783
1712
1721
1834
2007
2160
2201
2158
2064
1983
1935
1940
2003
2055
1999
1840
1619
1408
1259
1226
1310
1460
1561
1571
1520
1461
1434
1468
1584
1759
1921
1972
1943
1856
1782
1761
1813
1937
2074
2134
2089
1974
1875
1837
1871
1973
2104
2178
2159
2062
1938
1875
1886
1966
2097
2176
2175
2095
1982
1898
1885
1956
2083
2194
2235
2167
2054
1939
1883
1920
2027
2164
2247
2224
2129
2009
1936
1937
2029
2176
2288
2307
2229
2126
2037
2019
2095
2234
2361
2387
2323
2219
2119
2075
2121
2239
2368
2430
2386
2278
2157
2065
2063
2131
2256
2342
2333
2245
2099
2001
1974
2009
2111
2209
2243
2176
2058
1924
1861
1889
1990
2114
2179
2143
2059
1942
1865
1863
1943
2074
2143
2146
2066
1949
1865
1842
1886
1995
2096
2117
2047
1936
1845
1802
1835
1939
2070
2134
2106
2009
1904
1839
1849
1946
2093
2182
2194
2117
1975
1860
1826
1871
1968
2070
2090
2031
1911
1814
1770
1785
1876
1991
2054
2014
1921
1809
1739
1745
1831
1952
2031
2026
1957
1853
1775
1769
1841
1973
2087
2107
2031
1899
1780
1713
1741
1847
1950
2000
1962
1859
1750
1693
1708
1808
1922
2032
2077
2032
1955
1904
1918
1982
2096
2179
2163
2022
1811
1587
1418
1360
1409
1493
1535
1505
1432
1351
1303
1344
1475
1661
1808
1858
1820
1740
1680
1700
1791
1936
2064
2087
2018
1906
1805
1767
1810
1917
2031
2097
2074
1983
1872
1802
1818
1913
2043
2128
2113
2025
1924
1845
1840
1905
2019
2118
2119
2032
1914
1825
1805
1867
1987
2125
2189
2154
2047
1962
1899
1911
1999
2130
2224
2231
2166
2074
1999
1989
2047
2179
2304
2351
2314
2223
2134
2106
2132
2227
2343
2394
2353
2256
2148
2084
2107
2192
2313
2391
2381
2286
2171
2071
2039
2093
2195
2287
2288
2207
2077
1957
1915
1957
2065
2159
2189
2128
2025
1927
1861
1872
1961
2082
2143
2097
1983
1856
1775
1777
1859
1984
2084
2096
2018
1907
1818
1789
1837
1947
2083
2122
2064
1955
1840
1783
1817
1919
2054
2139
2122
2023
1907
1821
1808
1887
2006
2103
2109
2014
1886
1775
1733
1776
1879
1987
2030
1978
1872
1775
1712
1740
1839
1955
2036
2037
1970
1856
1763
1740
1803
1912
2002
2002
1933
1823
1727
1707
1744
1856
1979
2021
1957
1837
1725
1666
1690
1779
1894
1974
1957
1898
1817
1787
1835
1961
2128
2239
2242
2159
2025
1875
1770
1705
1691
1660
1579
1441
1296
1168
1157
1229
1370
1514
1619
1633
1587
1520
1504
1567
1695
1865
1989
2023
1968
1861
1767
1744
1807
1937
2066
2111
2064
1959
1862
1819
1853
1950
2079
2135
2101
2001
1895
1834
1849
1922
2032
2119
2121
2038
1927
1842
1841
1921
2059
2165
2201
2160
2046
1941
1887
1910
2013
2142
2227
2204
2112
2001
1947
1959
2057
2191
2307
2336
2276
2186
2100
2081
2143
2271
2384
2422
2370
2273
2181
2137
2174
2281
2403
2480
2462
2362
2239
2154
2130
2193
2295
2359
2335
2234
2103
1998
1959
1991
2112
2230
2266
2207
2081
1951
1894
1929
2029
2151
2212
2169
2069
1958
1885
1879
1971
2093
2175
2154
2060
1936
1853
1830
1887
2000
2125
2173
2111
1988
1882
1840
1872
1967
2082
2131
2096
2005
1918
1869
1894
1991
2119
2197
2183
2094
1974
1885
1873
1934
2043
2143
2156
2073
1955
1842
1790
1825
1926
2031
2080
2031
1936
1837
1778
1808
1902
2037
2131
2127
2029
1897
1791
1765
1825
1962
2063
2096
2030
1923
1824
1785
1831
1934
2023
2053
1972
1839
1714
1647
1680
1805
1969
2117
2166
2126
2047
1984
1979
2029
2138
2192
2126
1936
1701
1458
1300
1264
1328
1435
1488
1470
1412
1355
1342
1408
1535
1726
1855
1890
1854
1793
1740
1755
1840
1980
2112
2157
2096
1997
1904
1867
1915
2027
2157
2213
2173
2064
1947
1883
1905
2006
2145
2227
2221
2145
2032
1937
1909
1974
2109
2211
2235
2179
2047
1933
1889
1938
2074
2198
2256
2218
2123
2000
1948
1971
2074
2196
2277
2265
2203
2122
2063
2064
2133
2256
2368
2411
2368
2288
2214
2192
2255
2358
2469
2506
2451
2349
2244
2195
2235
2327
2439
2497
2462
2352
2238
2150
2133
2190
2298
2384
2377
2285
2135
2019
1973
2015
2133
2253
2293
2239
2134
2018
1950
1959
2042
2171
2242
2222
2116
1982
1885
1859
1907
2016
2113
2125
2061
1953
1867
1839
1879
1979
2086
2131
2097
2005
1897
1854
1886
1989
2123
2211
2195
2111
1990
1906
1903
1966
2065
2149
2135
2046
1920
1821
1791
1839
1950
2061
2096
2044
1935
1826
1774
1793
1883
1999
2070
2036
1942
1845
1771
1763
1823
1945
2057
2071
2000
1887
1783
1751
1803
1929
2030
2073
2023
1918
1795
1714
1712
1783
1872
1941
1936
1889
1831
1806
1865
1995
2180
2303
2311
2218
2058
1887
1755
1678
1642
1601
1508
1375
1245
1147
1127
1185
1317
1481
1580
1594
1535
1503
1490
1567
1711
1887
2035
2079
2010
1900
1833
1808
1870
1982
2099
2135
2070
1963
1858
1811
1851
1961
2098
2173
2132
2022
1900
1841
1856
1933
2038
2128
2128
2054
1938
1847
1838
1910
2043
2160
2199
2150
2045
1936
1889
1927
2039
2174
2244
2222
2137
2031
1962
1971
2068
2193
2289
2305
2236
2125
2032
2018
2097
2243
2383
2434
2397
2298
2204
2159
2192
2290
2418
2485
2457
2368
2260
2191
2186
2245
2359
2422
2403
2293
2165
2062
2019
2064
2175
2276
2293
2211
2076
1958
1903
1936
2035
2142
2181
2127
2000
1883
1811
1820
1907
2041
2120
2110
2009
1904
1815
1792
1859
1997
2123
2146
2076
1958
1852
1791
1823
1923
2028
2101
2082
1995
1900
1848
1867
1947
2064
2142
2128
2037
1919
1822
1793
1851
1968
2063
2065
1980
1855
1726
1665
1690
1790
1906
1971
1940
1845
1728
1679
1677
1751
1874
1961
1948
1853
1744
1680
1671
1742
1855
1954
1972
1893
1795
1703
1664
1701
1802
1904
1931
1857
1727
1601
1523
1535
1661
1826
1966
2019
2007
1957
1907
1915
1969
2079
2125
2035
1840
1590
1326
1126
1049
1088
1180
1248
1267
1214
1131
1092
1146
1291
1473
1623
1690
1685
1645
1616
1648
1747
1885
2006
2039
1979
1879
1775
1737
1787
1897
2017
2075
2017
1919
1817
1771
1793
1893
2032
2139
2127
2022
1930
1856
1840
1908
2034
2141
2155
2081
1977
1891
1866
1919
2038
2167
2223
2181
2087
1984
1923
1936
2032
2160
2247
2253
2185
2096
2022
2025
2123
2267
2385
2412
2353
2257
2177
2167
2239
2361
2479
2518
2460
2350
2245
2194
2224
2319
2441
2517
2499
2415
2303
2211
2187
2246
2368
2449
2431
2317
2192
2089
2032
2069
2171
2274
2311
2254
2138
2019
1950
1955
2057
2166
2247
2225
2128
1999
1906
1902
1967
2081
2174
2179
2107
1999
1906
1872
1906
2005
2117
2156
2101
1997
1893
1840
1871
1972
2099
2176
2171
2090
1983
1904
1903
1984
2107
2193
2197
2115
2002
1903
1865
1909
2000
2092
2121
2075
1968
1854
1794
1807
1903
2014
2089
2061
1968
1856
1787
1786
1852
1965
2064
2069
1994
1898
1808
1785
1825
1923
2028
2078
2021
1920
1791
1717
1713
1786
1879
1929
1890
1808
1739
1718
1775
1903
2080
2220
2275
2240
2145
2039
1972
1937
1917
1859
1715
1493
1258
1073
993
1035
1163
1318
1425
1443
1399
1338
1323
1392
1535
1754
1914
1973
1943
1872
1813
1818
1890
2009
2122
2154
2089
1968
1866
1810
1840
1939
2064
2133
2113
2025
1919
1856
1871
1941
2071
2172
2186
2110
2000
1920
1894
1937
2054
2154
2194
2161
2079
1991
1953
1983
2074
2191
2253
2239
2167
2069
1987
1997
2087
2219
2317
2318
2242
2137
2055
2039
2119
2251
2375
2431
2390
2298
2202
2155
2174
2269
2388
2459
2435
2347
2242
2167
2173
2251
2370
2448
2437
2346
2209
2096
2057
2097
2198
2299
2320
2246
2133
2022
1968
1984
2073
2169
2198
2147
2032
1913
1845
1853
1918
2023
2109
2109
2023
1888
1782
1755
1823
1959
2083
2113
2055
1936
1822
1761
1807
1919
2039
2096
2046
1955
1850
1789
1808
1904
2047
2147
2158
2087
1984
1901
1871
1920
2032
2128
2148
2073
1952
1838
1773
1798
1903
2006
2043
1997
1895
1776
1710
1725
1813
1937
2013
1998
1904
1783
1682
1656
1726
1850
1964
1989
1923
1831
1734
1711
1743
1845
1962
2017
1983
1869
1731
1644
1646
1707
1819
1891
1899
1856
1795
1775
1837
1959
2142
2294
2355
2290
2155
1977
1815
1701
1632
1561
1482
1361
1232
1131
1099
1163
1280
1424
1530
1571
1520
1494
1489
1535
1680
1853
2000
2041
1997
1901
1820
1791
1838
1962
2089
2139
2107
2011
1911
1851
1867
1951
2095
2185
2176
2102
1998
1929
1928
1990
2101
2180
2183
2099
1995
1923
1904
1959
2096
2217
2259
2213
2110
2000
1935
1953
2058
2198
2288
2270
2191
2090
2007
2014
2099
2225
2330
2370
2325
2224
2151
2127
2175
2288
2410
2462
2421
2323
2225
2177
2208
2295
2431
2505
2485
2384
2258
2163
2138
2192
2304
2384
2379
2297
2175
2064
2017
2059
2161
2260
2288
2225
2113
1998
1936
1966
2065
2171
2221
2177
2078
1951
1856
1838
1900
2009
2115
2131
2066
1946
1840
1803
1843
1947
2064
2109
2068
1970
1872
1810
1819
1915
2055
2143
2129
2032
1907
1815
1808
1878
2000
2102
2123
2084
1983
1893
1858
1899
1989
2096
2133
2091
1997
1879
1823
1843
1929
2033
2094
2057
1962
1849
1769
1752
1814
1934
2012
2027
1943
1839
1759
1735
1789
1901
2002
2030
1970
1858
1744
1699
1737
1843
1966
2036
2029
1938
1810
1714
1692
1751
1854
1936
1948
1890
1822
1779
1806
1908
2064
2195
2243
2201
2086
1937
1818
1757
1740
1706
1627
1477
1298
1145
1081
1109
1229
1406
1529
1593
1567
1498
1442
1484
1600
1772
1935
2007
1990
1906
1831
1808
1839
1929
2043
2102
2074
1979
1867
1796
1808
1890
2027
2127
2124
2036
1934
1855
1841
1903
2023
2135
2170
2112
1990
1885
1845
1902
2014
2131
2192
2170
2079
1958
1865
1851
1917
2039
2143
2159
2096
1993
1919
1920
1997
2128
2241
2288
2247
2151
2054
2010
2064
2169
2287
2350
2323
2240
2131
2047
2045
2122
2237
2321
2319
2253
2150
2073
2047
2102
2206
2310
2337
2283
2167
2035
1968
1983
2064
2160
2203
2153
2037
1925
1859
1866
1947
2064
2129
2102
2000
1877
1782
1750
1806
1916
2023
2064
2010
1908
1808
1776
1815
1926
2055
2118
2086
1984
1879
1817
1819
1894
2010
2092
2089
1999
1890
1819
1808
1865
1978
2095
2128
2080
1975
1879
1840
1863
1943
2042
2096
2055
1949
1840
1757
1753
1831
1951
2038
2045
1967
1855
1753
1726
1798
1923
2026
2043
1979
1849
1731
1665
1707
1825
1947
2003
1969
1854
1765
1687
1698
1770
1886
1970
1965
1877
1775
1690
1676
1743
1856
1955
1987
1941
1856
1781
1770
1854
2000
2143
2223
2192
2090
1939
1808
1735
1716
1707
1655
1525
1355
1207
1123
1123
1208
1359
1488
1557
1523
1451
1385
1392
1489
1666
1861
1973
1975
1931
1818
1766
1794
1889
2010
2083
2067
1995
1906
1839
1819
1877
1984
2065
2081
2017
1914
1821
1808
1859
1984
2113
2160
2107
2007
1920
1844
1856
1931
2047
2134
2131
2047
1946
1862
1844
1885
2017
2131
2163
2114
2013
1919
1881
1924
2038
2167
2226
2205
2128
2023
1965
1983
2083
2205
2288
2277
2197
2091
2001
1989
2077
2211
2316
2331
2265
2159
2057
2007
2035
2133
2255
2305
2257
2161
2058
1983
1982
2047
2149
2208
2175
2075
1943
1850
1821
1882
2002
2099
2112
2031
1905
1801
1758
1813
1923
2032
2071
2017
1923
1830
1776
1791
1874
1984
2064
2045
1966
1860
1776
1786
1869
1997
2113
2128
2047
1934
1842
1785
1827
1936
2061
2118
2079
1984
1875
1827
1855
1939
2053
2115
2086
1982
1856
1760
1747
1829
1920
2006
2004
1933
1815
1728
1712
1769
1878
1995
2035
1995
1888
1789
1731
1758
1840
1932
1984
1951
1853
1741
1683
1699
1776
1890
1990
2000
1926
1811
1712
1675
1719
1821
1930
1968
1909
1822
1748
1727
1788
1910
2061
2160
2160
2074
1945
1834
1776
1776
1812
1830
1723
1535
1335
1182
1131
1177
1284
1418
1488
1472
1405
1348
1353
1443
1603
1786
1928
1969
1925
1834
1763
1776
1860
1982
2075
2081
1997
1892
1827
1822
1873
1983
2091
2134
2094
1982
1862
1795
1825
1927
2044
2102
2079
1988
1881
1795
1783
1858
1983
2096
2117
2053
1937
1845
1815
1881
2014
2140
2176
2126
2000
1891
1839
1872
1982
2115
2203
2199
2112
1987
1935
1961
2055
2161
2253
2253
2182
2087
1976
1939
1990
2118
2244
2277
2218
2112
2001
1953
1988
2099
2224
2288
2255
2155
2043
1970
1968
2026
2129
2199
2180
2083
1953
1847
1815
1873
1985
2103
2131
2075
1955
1837
1773
1797
1898
1995
2073
2045
1943
1853
1783
1778
1862
1972
2053
2040
1966
1857
1778
1766
1841
1959
2064
2095
2023
1895
1775
1712
1746
1854
1972
2057
2064
2001
1883
1811
1818
1895
2003
2086
2085
2017
1917
1830
1805
1848
1950
2039
2064
1983
1857
1741
1694
1723
1815
1939
2015
2000
1908
1793
1728
1744
1834
1934
2019
2021
1932
1818
1735
1727
1795
1921
2032
2057
1994
1872
1758
1703
1738
1857
1983
2037
1973
1854
1744
1669
1666
1761
1909
2037
2082
2043
1979
1916
1904
1959
2064
2155
2155
2026
1835
1627
1456
1367
1367
1421
1447
1409
1344
1275
1255
1325
1454
1622
1757
1808
1769
1703
1659
1680
1779
1929
2062
2111
2064
1967
1872
1813
1841
1932
2035
2094
2058
1968
1870
1808
1838
1934
2059
2132
2143
2070
1958
1872
1857
1915
2042
2159
2174
2103
1983
1887
1840
1881
1983
2103
2171
2151
2057
1936
1871
1873
1967
2103
2208
2215
2134
2029
1941
1934
2006
2141
2259
2289
2227
2123
2034
2018
2081
2203
2315
2377
2327
2217
2107
2031
2039
2126
2230
2306
2293
2210
2103
2025
2010
2081
2193
2287
2289
2205
2073
1949
1890
1908
2009
2139
2198
2160
2043
1929
1865
1873
1963
2090
2161
2146
2053
1922
1826
1809
1886
2007
2100
2124
2046
1937
1836
1792
1840
1939
2055
2103
2063
1954
1851
1793
1803
1889
2022
2122
2125
2043
1941
1863
1856
1921
2017
2089
2075
1990
1871
1815
1814
1890
2011
2143
2193
2158
2036
1911
1851
1867
1937
2045
2113
2090
1990
1873
1794
1776
1840
1950
2055
2071
1995
1876
1766
1723
1782
1904
2032
2092
2034
1910
1776
1706
1743
1854
1995
2092
2067
1961
1830
1728
1711
1767
1920
2040
2064
1979
1858
1751
1710
1762
1881
1985
2032
1984
1900
1831
1819
1899
2032
2195
2289
2260
2131
1968
1835
1748
1718
1726
1707
1609
1443
1288
1171
1152
1231
1377
1522
1609
1606
1535
1471
1471
1569
1723
1905
2033
2055
1984
1879
1798
1808
1899
2033
2143
2157
2073
1956
1849
1811
1865
1981
2099
2149
2117
2001
1874
1809
1840
1964
2069
2128
2096
1991
1897
1845
1871
1956
2080
2175
2179
2114
1996
1878
1840
1881
1994
2112
2168
2128
2034
1949
1909
1951
2064
2195
2270
2259
2182
2082
2012
2017
2101
2225
2317
2329
2261
2151
2061
2032
2091
2212
2342
2386
2331
2210
2106
2033
2041
2123
2226
2295
2267
2175
2063
1973
1959
1998
2113
2199
2208
2147
2035
1934
1879
1920
2036
2155
2182
2126
2003
1926
1873
1891
1973
2083
2128
2087
1971
1855
1776
1776
1858
1989
2082
2086
2009
1910
1808
1776
1818
1927
2041
2095
2038
1925
1806
1757
1782
1879
2000
2078
2042
1955
1850
1775
1776
1854
1990
2098
2114
2034
1920
1815
1783
1841
1959
2073
2118
2080
1972
1856
1802
1835
1940
2063
2128
2092
1982
1872
1793
1790
1855
1969
2064
2055
1967
1846
1751
1732
1795
1913
2023
2064
2003
1917
1809
1746
1787
1899
2038
2112
2080
1984
1856
1751
1738
1802
1919
2000
1990
1913
1814
1736
1714
1769
1870
1974
1991
1930
1826
1721
1691
1761
1904
2064
2190
2203
2143
2064
1981
1963
1998
2053
2026
1908
1675
1423
1238
1168
1218
1332
1461
1526
1505
1434
1374
1360
1426
1584
1750
1865
1901
1859
1791
1744
1763
1858
1996
2096
2093
2011
1892
1814
1795
1855
1984
2111
2143
2097
1995
1887
1841
1878
1990
2126
2195
2160
2046
1946
1879
1891
1970
2096
2177
2160
2066
1962
1886
1881
1952
2095
2202
2229
2166
2071
1959
1920
1958
2071
2197
2267
2240
2161
2069
2019
2047
2143
2266
2357
2361
2290
2192
2118
2111
2174
2298
2410
2435
2384
2279
2176
2130
2175
2279
2387
2432
2377
2267
2151
2079
2077
2141
2239
2305
2287
2192
2066
1959
1923
1970
2081
2170
2182
2115
1997
1888
1838
1869
1970
2096
2160
2126
2004
1879
1796
1805
1895
2027
2112
2093
1994
1872
1798
1792
1862
1975
2064
2064
1984
1872
1776
1746
1802
1922
2047
2111
2062
1936
1808
1733
1738
1823
1947
2045
2043
1965
1857
1766
1757
1822
1938
2039
2075
2022
1917
1817
1787
1847
1968
2096
2136
2098
1999
1882
1801
1795
1877
2000
2088
2083
1975
1861
1751
1731
1791
1904
1997
2006
1936
1831
1737
1707
1745
1859
1968
2015
1967
1859
1751
1698
1727
1819
1936
2006
1987
1901
1791
1718
1707
1779
1907
2013
2042
1987
1895
1799
1730
1739
1808
1889
1924
1871
1773
1686
1659
1718
1874
2096
2261
2311
2265
2176
2094
2058
2082
2112
2085
1955
1730
1469
1249
1145
1175
1303
1447
1532
1520
1441
1353
1333
1403
1535
1741
1887
1938
1897
1809
1742
1742
1812
1938
2045
2071
2002
1903
1821
1808
1866
1974
2112
2159
2118
2015
1913
1855
1877
1975
2087
2163
2154
2077
1965
1881
1889
1973
2102
2208
2217
2140
2029
1936
1898
1933
2039
2157
2203
2171
2095
1999
1951
1975
2074
2210
2286
2275
2203
2111
2037
2039
2122
2256
2367
2394
2331
2237
2161
2143
2192
2315
2441
2481
2425
2323
2231
2183
2202
2287
2410
2471
2435
2341
2224
2141
2135
2204
2305
2374
2367
2283
2160
2037
1999
2031
2133
2224
2249
2176
2061
1941
1890
1911
2011
2140
2204
2176
2076
1951
1853
1838
1900
2017
2118
2132
2062
1922
1823
1783
1828
1939
2064
2103
2047
1939
1835
1778
1813
1936
2033
2107
2073
1977
1851
1773
1771
1856
1991
2091
2082
1991
1877
1785
1761
1817
1936
2054
2083
2006
1898
1787
1747
1789
1903
2035
2125
2106
2016
1906
1829
1836
1917
2013
2103
2102
2019
1902
1802
1761
1802
1900
1998
2025
1972
1868
1776
1737
1767
1866
1967
2014
1971
1870
1758
1691
1711
1791
1898
1981
1971
1909
1822
1747
1731
1788
1903
2005
2026
1963
1850
1738
1683
1723
1837
1953
1995
1936
1819
1685
1606
1628
1744
1907
2070
2141
2122
2072
2032
2060
2129
2239
2317
2283
2117
1862
1575
1342
1215
1201
1272
1327
1310
1249
1181
1155
1198
1319
1482
1637
1712
1709
1675
1649
1680
1778
1918
2030
2074
2009
1904
1799
1759
1801
1905
2038
2118
2096
1991
1879
1807
1819
1890
2026
2119
2125
2047
1938
1850
1824
1894
2029
2149
2197
2165
2064
1935
1871
1911
2009
2134
2201
2166
2070
1966
1902
1920
2010
2145
2240
2251
2177
2086
2000
2011
2089
2213
2331
2381
2337
2240
2138
2106
2150
2253
2379
2449
2429
2337
2238
2179
2192
2277
2401
2490
2479
2379
2256
2167
2155
2215
2320
2415
2423
2337
2196
2071
2016
2057
2154
2251
2293
2238
2118
2000
1931
1943
2032
2133
2198
2187
2090
1947
1855
1847
1921
2045
2144
2160
2084
1961
1858
1808
1843
1950
2065
2119
2073
1959
1841
1776
1792
1872
1985
2110
2121
2046
1927
1846
1828
1879
1995
2101
2114
2032
1915
1814
1785
1850
1953
2063
2097
2041
1951
1856
1799
1830
1918
2032
2112
2106
2015
1919
1855
1851
1920
2035
2135
2147
2085
1971
1862
1823
1858
1950
2043
2079
2019
1919
1797
1728
1743
1835
1959
2041
2021
1929
1806
1727
1731
1820
1959
2058
2053
1970
1854
1755
1716
1755
1871
1997
2062
2013
1916
1804
1744
1757
1839
1965
2039
2007
1897
1763
1646
1616
1690
1839
1984
2064
2065
2015
1989
2034
2154
2301
2432
2471
2393
2205
1962
1728
1562
1459
1421
1394
1326
1232
1136
1075
1082
1177
1335
1472
1535
1528
1491
1478
1527
1649
1817
1963
2032
2002
1931
1844
1803
1830
1921
2046
2128
2112
2013
1899
1816
1815
1904
2039
2147
2161
2085
1966
1867
1837
1891
2014
2148
2195
2151
2043
1930
1893
1915
2007
2141
2227
2214
2127
2005
1927
1925
2003
2129
2228
2241
2183
2086
1989
1971
2035
2173
2311
2378
2339
2240
2133
2079
2110
2199
2320
2414
2411
2331
2240
2176
2183
2256
2368
2451
2458
2404
2295
2212
2195
2253
2356
2463
2496
2432
2303
2169
2091
2095
2170
2266
2319
2278
2166
2031
1946
1923
1975
2075
2173
2179
2102
1977
1874
1839
1879
1980
2087
2112
2064
1962
1859
1808
1835
1931
2054
2123
2095
1997
1873
1791
1777
1865
1983
2085
2103
2027
1913
1810
1776
1831
1947
2053
2074
2020
1933
1831
1785
1813
1885
2007
2075
2042
1951
1841
1783
1785
1859
1987
2087
2083
2000
1903
1809
1792
1861
1995
2123
2167
2112
1981
1854
1788
1806
1898
2004
2078
2047
1951
1834
1758
1762
1839
1937
2027
2002
1907
1775
1667
1632
1686
1812
1950
2000
1957
1841
1719
1653
1690
1805
1925
1989
1979
1905
1799
1729
1731
1803
1913
1994
1990
1911
1802
1696
1648
1686
1787
1873
1899
1851
1781
1734
1755
1872
2064
2256
2385
2397
2317
2188
2071
1981
1921
1881
1787
1605
1358
1152
1023
1008
1098
1245
1387
1456
1427
1360
1298
1315
1433
1639
1853
1967
1965
1886
1793
1744
1757
1841
1962
2055
2058
1984
1872
1778
1756
1834
1943
2062
2099
2047
1963
1871
1824
1854
1949
2065
2121
2087
1981
1885
1822
1845
1949
2098
2199
2190
2096
1977
1889
1883
1958
2087
2203
2229
2167
2064
1969
1933
1973
2086
2212
2288
2267
2176
2070
2001
2012
2115
2262
2372
2384
2326
2223
2131
2126
2182
2302
2403
2432
2377
2266
2165
2128
2171
2277
2393
2443
2397
2302
2189
2119
2118
2183
2288
2352
2323
2221
2094
1974
1936
1980
2090
2189
2214
2146
2018
1907
1872
1910
1990
2118
2176
2144
2034
1911
1847
1856
1923
2030
2111
2102
2007
1902
1811
1802
1875
2009
2123
2134
2063
1936
1830
1781
1813
1936
2078
2132
2096
1984
1868
1789
1794
1878
2001
2096
2093
