240
157
239
474
710
784
658
374
157
61
148
403
705
880
843
661
442
305
341
550
810
954
881
661
364
129
81
228
500
751
815
658
352
62
0
0
192
439
573
494
269
18
0
0
130
461
707
731
560
316
95
41
197
501
766
832
698
437
203
119
256
569
925
1087
978
705
409
246
303
585
943
1191
1219
1019
704
446
389
581
921
1253
1374
1278
1058
832
742
831
1065
1279
1328
1162
854
569
443
578
930
1366
1647
1616
1331
955
656
564
733
1072
1399
1531
1433
1200
1007
965
1099
1387
1699
1834
1729
1478
1241
1140
1290
1621
1951
2075
1872
1402
910
620
656
960
1359
1611
1535
1216
776
443
345
529
899
1289
1474
1391
1125
837
710
807
1115
1477
1727
1705
1441
1104
820
766
1007
1427
1786
1879
1710
1394
1121
1046
1221
1606
1989
2176
2083
1751
1371
1120
1085
1270
1535
1738
1717
1488
1211
1033
1079
1372
1794
2127
2178
1928
1527
1151
981
1116
1485
1894
2106
2019
1730
1410
1245
1326
1628
1995
2215
2150
1867
1498
1232
1194
1396
1776
2102
2170
1992
1703
1472
1424
1616
1978
2288
2379
2207
1859
1495
1280
1319
1648
2077
2377
2425
2233
1961
1756
1743
1951
2285
2537
2544
2311
1968
1705
1663
1877
2254
2591
2709
2559
2256
1951
1798
1887
2191
2548
2768
2721
2480
2163
1936
1919
2135
2481
2766
2810
2628
2336
2091
2014
2159
2449
2733
2811
2667
2384
2113
1980
2067
2339
2647
2803
2714
2442
2150
1957
1984
2219
2554
2810
2832
2625
2323
2102
2046
2207
2530
2837
2932
2791
2496
2205
2047
2131
2411
2727
2901
2839
2590
2287
2085
2087
2320
2672
2938
2960
2751
2441
2189
2125
2299
2642
2960
3067
2910
2559
2240
2043
2079
2322
2631
2814
2761
2526
2247
2064
2069
2275
2608
2851
2877
2676
2365
2111
2032
2183
2495
2802
2927
2812
2529
2251
2107
2173
2425
2724
2878
2800
2526
2221
2014
2021
2240
2555
2781
2768
2535
2235
1997
1936
2096
2406
2691
2779
2628
2349
2069
1930
2018
2305
2634
2791
2679
2379
2043
1818
1808
2031
2374
2627
2627
2407
2083
1808
1712
1849
2157
2427
2495
2327
2020
1728
1595
1690
1968
2288
2449
2383
2127
1818
1623
1639
1877
2219
2455
2442
2210
1878
1618
1554
1725
2060
2353
2431
2285
2000
1689
1567
1667
1965
2301
2467
2378
2086
1735
1504
1526
1776
2134
2387
2396
2173
1851
1598
1523
1683
1995
2261
2319
2127
1783
1480
1363
1509
1879
2302
2559
2583
2407
2201
2122
2279
2645
3061
3307
3151
2673
2098
1616
1390
1469
1759
2041
2139
2013
1744
1461
1332
1424
1718
2060
2227
2162
1936
1666
1514
1584
1853
2197
2407
2348
2078
1734
1481
1442
1639
1984
2282
2345
2166
1856
1581
1473
1614
1946
2297
2448
2338
2043
1698
1482
1494
1735
2064
2288
2269
2047
1742
1493
1438
1616
1915
2219
2299
2160
1872
1610
1503
1631
1943
2260
2400
2288
1994
1669
1473
1503
1753
2096
2327
2304
2073
1765
1530
1503
1712
2054
2326
2381
2198
1885
1606
1498
1629
1950
2271
2432
2355
2095
1777
1575
1594
1828
2171
2397
2377
2159
1858
1633
1603
1803
2155
2448
2517
2352
2046
1756
1635
1743
2038
2356
2492
2385
2111
1811
1648
1712
2000
2382
2625
2603
2363
2037
1779
1728
1904
2225
2481
2514
2323
2006
1712
1599
1715
2023
2337
2461
2343
2060
1751
1584
1611
1854
2171
2371
2330
2082
1762
1531
1503
1709
2032
2305
2354
2178
1871
1589
1473
1590
1895
2212
2333
2221
1941
1659
1510
1586
1887
2238
2485
2480
2237
1871
1568
1450
1599
1925
2224
2283
2109
1803
1510
1403
1523
1845
2171
2308
2189
1895
1582
1392
1425
1699
2044
2256
2227
1996
1690
1449
1423
1626
1982
2273
2325
2139
1819
1553
1447
1600
1942
2289
2433
2319
2007
1673
1481
1521
1789
2130
2347
2311
2079
1766
1535
1535
1755
2098
2349
2378
2179
1851
1563
1459
1605
1936
2256
2385
2278
1994
1693
1519
1589
1870
2222
2431
2384
2143
1833
1611
1600
1808
2129
2374
2399
2207
1904
1646
1555
1676
2000
2317
2437
2317
2029
1730
1573
1637
1904
2235
2416
2335
2071
1749
1525
1503
1710
2032
2297
2342
2174
1872
1600
1496
1633
1942
2249
2355
2230
1934
1616
1435
1488
1774
2150
2375
2327
2086
1737
1485
1462
1671
2001
2256
2283
2091
1786
1525
1451
1599
1905
2250
2396
2299
2032
1731
1559
1616
1891
2225
2406
2326
2052
1711
1466
1443
1643
1965
2224
2247
2047
1741
1459
1349
1482
1791
2106
2241
2145
1869
1566
1392
1453
1734
2059
2240
2174
1910
1594
1372
1365
1584
1923
2171
2181
1982
1680
1425
1362
1525
1847
2182
2288
2150
1839
1520
1360
1425
1702
2038
2247
2211
1964
1659
1441
1451
1669
1987
2230
2221
1970
1614
1314
1218
1381
1732
2100
2293
2259
2098
1921
1897
2093
2470
2906
3167
3086
2688
2158
1679
1427
1440
1682
1883
1875
1667
1373
1133
1074
1233
1579
1913
2061
1947
1670
1408
1293
1406
1722
2069
2266
2211
1966
1661
1429
1411
1628
1969
2223
2239
2029
1719
1467
1406
1567
1891
2186
2267
2106
1794
1490
1360
1456
1761
2106
2287
2222
1965
1670
1471
1479
1710
2039
2273
2266
2033
1727
1473
1421
1596
1925
2237
2339
2190
1881
1585
1447
1529
1821
2139
2301
2214
1938
1631
1431
1456
1707
2054
2301
2314
2112
1797
1535
1475
1643
1985
2287
2368
2215
1909
1623
1494
1603
1904
2241
2415
2341
2083
1758
1571
1605
1859
2214
2463
2462
2242
1922
1671
1616
1791
2130
2427
2514
2372
2076
1791
1667
1765
2063
2386
2554
2478
2217
1899
1695
1725
1945
2273
2485
2449
2207
1867
1603
1534
1712
2038
2325
2391
2217
1889
1590
1466
1568
1856
2176
2318
2215
1922
1595
1386
1408
1655
1990
2219
2200
1968
1653
1411
1376
1556
1883
2175
2241
2071
1754
1442
1313
1408
1707
2030
2194
2111
1834
1509
1303
1334
1582
1921
2156
2138
1905
1588
1361
1337
1525
1861
2161
2235
2065
1758
1462
1344
1451
1764
2091
2242
2135
1831
1489
1292
1319
1579
1925
2162
2149
1915
1598
1350
1309
1498
1822
2124
2189
2014
1712
1441
1333
1454
1769
2109
2266
2166
1874
1558
1360
1385
1622
1945
2162
2142
1916
1610
1371
1341
1522
1858
2141
2207
2035
1760
1475
1360
1462
1765
2077
2219
2128
1863
1570
1385
1413
1636
1951
2187
2192
1989
1697
1469
1430
1607
1923
2193
2246
2079
1776
1526
1435
1558
1856
2158
2282
2176
1915
1637
1476
1535
1794
2129
2355
2327
2102
1790
1535
1501
1690
2026
2304
2363
2192
1891
1598
1456
1531
1808
2117
2258
2153
1879
1584
1419
1470
1728
2064
2272
2254
2031
1723
1486
1444
1622
1949
2223
2279
2103
1793
1508
1392
1509
1810
2122
2253
2147
1871
1566
1390
1438
1695
2025
2233
2198
1967
1678
1455
1431
1643
1983
2271
2331
2158
1843
1562
1441
1535
1831
2125
2226
2093
1781
1461
1296
1366
1670
2071
2383
2480
2394
2235
2128
2205
2480
2871
3168
3131
2750
2192
1662
1335
1299
1517
1781
1893
1795
1535
1279
1136
1200
1456
1798
2015
2002
1807
1535
1369
1391
1613
1935
2239
2299
2144
1850
1594
1500
1616
1904
2198
2315
2195
1914
1616
1449
1506
1791
2128
2333
2289
2053
1744
1519
1503
1712
2042
2305
2342
2171
1881
1625
1522
1648
1950
2250
2357
2229
1953
1670
1517
1587
1830
2184
2375
2321
2073
1758
1535
1535
1785
2153
2443
2483
2291
1982
1694
1585
1693
1982
2271
2397
2292
2032
1755
1601
1658
1915
2240
2431
2384
2151
1857
1661
1655
1854
2189
2444
2479
2298
2009
1757
1681
1825
2129
2431
2550
2432
2151
1856
1713
1801
2080
2396
2583
2524
2288
1978
1771
1776
1998
2338
2593
2609
2397
2091
1825
1733
1841
2128
2402
2497
2364
2071
1771
1610
1662
1919
2234
2405
2332
2064
1743
1515
1502
1707
2021
2271
2288
2079
1763
1487
1394
1520
1829
2125
2222
2087
1804
1525
1370
1437
1713
2030
2194
2131
1878
1584
1368
1360
1567
1906
2171
2221
2047
1758
1493
1413
1557
1872
2160
2253
2114
1808
1504
1360
1441
1735
2067
2239
2173
1914
1615
1418
1424
1646
1953
2219
2237
2037
1746
1487
1420
1584
1899
2179
2262
2114
1844
1567
1417
1502
1796
2125
2293
2222
1967
1669
1463
1463
1683
2018
2263
2286
2092
1791
1525
1459
1610
1923
2211
2292
2139
1837
1535
1407
1494
1797
2141
2320
2247
1985
1680
1467
1472
1702
2035
2284
2286
2086
1782
1523
1453
1621
1931
2223
2310
2169
1872
1595
1466
1569
1865
2198
2362
2271
2001
1695
1478
1488
1722
2071
2323
2339
2142
1853
1594
1515
1680
2000
2306
2414
2286
1994
1712
1584
1664
1936
2245
2406
2327
2065
1747
1535
1572
1803
2128
2351
2335
2100
1781
1526
1472
1642
1958
2243
2331
2177
1891
1601
1472
1575
1863
2182
2333
2241
1975
1673
1473
1486
1719
2038
2275
2267
2055
1750
1520
1488
1670
1981
2259
2329
2160
1855
1573
1441
1535
1822
2143
2301
2227
1977
1679
1485
1513
1755
2096
2314
2304
2095
1776
1498
1411
1557
1839
2149
2245
2141
1926
1751
1746
1982
2412
2864
3149
3152
2907
2544
2195
1974
1949
2037
2087
1964
1696
1383
1167
1149
1357
1711
2007
2091
1933
1658
1399
1310
1434
1782
2129
2313
2235
1965
1669
1483
1523
1782
2117
2339
2319
2103
1807
1590
1569
1751
2069
2331
2384
2222
1913
1643
1530
1668
1961
2275
2420
2331
2081
1783
1597
1616
1849
2177
2394
2383
2170
1875
1654
1635
1819
2143
2410
2452
2271
1972
1687
1590
1718
2022
2326
2449
2339
2064
1759
1579
1619
1872
2223
2454
2445
2227
1936
1712
1690
1882
2196
2472
2538
2381
2096
1814
1693
1794
2091
2391
2531
2447
2187
1922
1762
1805
2042
2365
2559
2535
2305
2006
1793
1776
1984
2320
2597
2646
2470
2176
1906
1812
1941
2246
2553
2679
2559
2284
1978
1795
1847
2112
2437
2637
2581
2333
2006
1776
1740
1909
2219
2469
2502
2319
2015
1740
1623
1727
2000
2293
2406
2281
1980
1664
1479
1509
1759
2081
2287
2251
2026
1728
1513
1499
1705
2029
2273
2292
2101
1787
1504
1405
1535
1856
2178
2320
2205
1920
1617
1430
1471
1742
2062
2260
2226
2000
1702
1483
1476
1697
2032
2301
2325
2138
1837
1573
1459
1575
1856
2143
2249
2130
1862
1577
1430
1511
1792
2119
2303
2255
2009
1709
1488
1485
1688
2001
2262
2302
2123
1824
1567
1475
1617
1930
2223
2336
2221
1939
1650
1486
1535
1801
2129
2325
2288
2055
1754
1535
1521
1717
2032
2288
2323
2156
1854
1586
1478
1600
1904
2207
2320
2192
1906
1623
1470
1535
1809
2142
2320
2257
2009
1703
1488
1487
1707
2047
2321
2357
2163
1831
1602
1522
1669
1984
2281
2377
2240
1942
1648
1486
1535
1831
2176
2390
2372
2160
1860
1649
1641
1849
2175
2417
2423
2214
1905
1651
1568
1686
1982
2256
2337
2177
1873
1591
1449
1535
1835
2167
2352
2295
2047
1749
1535
1535
1770
2103
2330
2326
2103
1775
1495
1424
1587
1914
2223
2331
2213
1935
1647
1491
1565
1826
2131
2304
2245
2022
1712
1503
1499
1718
2047
2299
2315
2118
1812
1557
1475
1623
1941
2242
2338
2198
1904
1597
1419
1461
1717
2036
2247
2241
2070
1869
1776
1891
2224
2651
3001
3125
2982
2682
2336
2095
2011
2111
2223
2174
1934
1600
1301
1183
1290
1577
1936
2127
2071
1835
1559
1389
1424
1675
2026
2288
2314
2126
1826
1584
1507
1662
1974
2278
2375
2239
1952
1667
1520
1587
1859
2171
2334
2261
2003
1705
1494
1507
1744
2083
2329
2347
2160
1879
1646
1587
1744
2060
2327
2386
2231
1955
1699
1581
1665
1954
2283
2443
2352
2089
1765
1570
1584
1812
2148
2381
2393
2190
1872
1633
1582
1744
2071
2369
2470
2331
2033
1747
1603
1670
1933
2242
2415
2343
2107
1826
1653
1680
1903
2224
2459
2466
2262
1968
1737
1693
1861
2191
2480
2559
2417
2129
1850
1727
1814
2107
2422
2580
2495
2245
1954
1773
1802
2035
2364
2589
2559
2353
2038
1807
1743
1904
2217
2479
2523
2339
2033
1758
1637
1728
2003
2311
2448
2339
2053
1737
1531
1553
1781
2109
2330
2319
2090
1763
1501
1456
1607
1943
2213
2275
2115
1816
1535
1428
1535
1837
2156
2299
2207
1943
1622
1426
1455
1690
2029
2260
2257
2031
1722
1473
1424
1596
1902
2176
2240
2067
1751
1461
1348
1485
1834
2181
2337
2239
1946
1631
1434
1466
1720
2064
2291
2271
2046
1746
1501
1446
1615
1930
2195
2240
2055
1753
1475
1385
1520
1839
2171
2331
2242
1968
1660
1465
1487
1744
2046
2256
2222
2000
1697
1472
1449
1638
1968
2241
2295
2127
1840
1580
1466
1593
1898
2211
2341
2230
1950
1658
1482
1521
1771
2087
2294
2265
2034
1733
1498
1459
1648
1972
2252
2314
2147
1852
1583
1475
1584
1911
2235
2370
2263
1989
1699
1535
1596
1851
2176
2365
2310
2065
1758
1535
1523
1733
2059
2325
2383
2223
1936
1678
1583
1701
1984
2313
2434
2320
2023
1716
1531
1584
1846
2193
2420
2407
2192
1898
1681
1667
1871
2192
2432
2461
2286
2000
1744
1648
1755
2047
2331
2441
2310
2018
1710
1531
1583
1826
2154
2352
2314
2085
1789
1579
1559
1752
2070
2325
2363
2182
1885
1626
1530
1655
1953
2256
2378
2267
1989
1694
1519
1557
1806
2129
2329
2297
2065
1773
1570
1569
1790
2141
2401
2429
2231
1913
1637
1533
1653
1942
2240
2338
2209
1922
1617
1433
1470
1723
2046
2256
2246
2067
1850
1732
1835
2153
2583
2950
3102
3005
2758
2466
2247
2167
2239
2337
2288
2057
1712
1405
1259
1349
1614
1968
2160
2107
1861
1585
1398
1424
1671
2026
2299
2327
2133
1825
1569
1472
1619
1935
2250
2368
2251
1975
1694
1533
1601
1879
2213
2403
2349
2096
1785
1571
1568
1792
2129
2382
2399
2202
1890
1627
1535
1684
2022
2325
2434
2306
2021
1732
1591
1673
1957
2288
2456
2362
2091
1765
1570
1587
1822
2163
2415
2426
2228
1926
1684
1635
1791
2096
2389
2480
2330
2038
1762
1634
1721
1994
2302
2448
2362
2113
1825
1627
1661
1904
2266
2539
2559
2358
2039
1776
1701
1855
2175
2470
2559
2428
2139
1863
1740
1844
2150
2483
2672
2599
2333
2022
1811
1816
2061
2395
2641
2640
2432
2122
1861
1809
1990
2331
2624
2700
2531
2202
1888
1738
1822
2106
2415
2559
2445
2128
1792
1590
1617
1858
2205
2442
2427
2192
1861
1602
1533
1690
2002
2295
2371
2208
1906
1619
1476
1575
1881
2218
2381
2288
2001
1682
1488
1521
1789
2151
2390
2379
2145
1801
1527
1470
1649
1991
2294
2369
2203
1894
1609
1490
1620
1943
2290
2451
2364
2093
1775
1570
1594
1833
2167
2391
2373
2145
1824
1590
1535
1723
2059
2354
2441
2291
1997
1719
1601
1695
1970
2288
2446
2367
2108
1801
1611
1637
1879
2199
2407
2384
2161
1857
1631
1599
1787
2123
2407
2480
2318
2015
1727
1600
1697
1989
2317
2466
2355
2074
1767
1592
1639
1886
2227
2448
2421
2178
1855
1606
1574
1763
2108
2404
2479
2305
1995
1711
1591
1691
1989
2301
2437
2338
2061
1747
1575
1618
1874
2222
2438
2414
2179
1861
1632
1614
1812
2159
2433
2480
2288
1963
1678
1568
1683
1985
2304
2439
2335
2061
1765
1590
1645
1907
2267
2493
2454
2192
1849
1595
1535
1745
2102
2384
2432
2239
1913
1628
1515
1648
1973
2322
2487
2381
2093
1769
1581
1616
1858
2193
2411
2382
2139
1813
1576
1535
1727
2046
2320
2377
2203
1902
1637
1535
1690
2017
2334
2453
2320
2013
1691
1514
1576
1858
2224
2449
2423
2182
1872
1654
1650
1860
2201
2471
2497
2289
1947
1635
1503
1623
1914
2222
2351
2239
1954
1648
1485
1559
1830
2165
2365
2313
2064
1743
1506
1472
1675
2015
2291
2336
2149
1822
1563
1478
1625
1950
2270
2383
2249
1947
1638
1473
1535
1830
2192
2410
2368
2128
1806
1575
1535
1743
2064
2320
2353
2160
1872
1616
1532
1664
1971
2279
2384
2235
1909
1575
1373
1409
1680
2054
2311
2348
2218
2037
1949
2066
2387
2847
3231
3353
3157
2754
2297
1959
1849
1964
2139
2187
2022
1719
1421
1273
1332
1596
1913
2102
2046
1813
1535
1371
1418
1655
2035
2313
2343
2135
1831
1579
1503
1664
1981
2287
2386
2249
1958
1670
1513
1584
1858
2205
2412
2362
2106
1790
1567
1565
1779
2122
2385
2413
2208
1885
1615
1535
1696
2031
2343
2453
2319
2013
1701
1532
1601
1887
2237
2432
2371
2116
1808
1597
1581
1789
2129
2398
2429
2224
1904
1632
1535
1694
2007
2305
2412
2275
2000
1733
1600
1679
1971
2320
2515
2448
2178
1856
1639
1639
1870
2224
2487
2509
2307
1996
1741
1663
1806
2135
2453
2589
2467
2176
1871
1725
1813
2118
2459
2645
2559
2307
1981
1759
1765
1999
2342
2594
2608
2388
2074
1806
1725
1874
2213
2518
2631
2483
2190
1877
1712
1770
2032
2366
2537
2450
2176
1847
1630
1616
1808
2129
2366
2368
2145
1814
1535
1458
1622
1942
2239
2326
2170
1846
1559
1414
1488
1782
2117
2290
2208
1935
1616
1418
1440
1680
2026
2275
2278
2061
1739
1483
1421
1581
1895
2190
2283
2135
1843
1565
1427
1523
1825
2160
2321
2230
1943
1623
1425
1456
1711
2061
2306
2304
2079
1743
1467
1395
1557
1901
2193
2294
2155
1868
1589
1461
1554
1847
2176
2334
2228
1951
1643
1443
1473
1725
2067
2317
2325
2112
1799
1535
1483
1670
1985
2272
2342
2179
1872
1585
1456
1562
1858
2193
2359
2270
1991
1671
1473
1505
1754
2096
2319
2288
2039
1721
1458
1423
1620
1968
2266
2347
2179
1875
1600
1472
1585
1899
2237
2398
2291
1991
1674
1469
1491
1741
2076
2304
2297
2087
1754
1506
1461
1654
1989
2289
2375
2219
1915
1638
1505
1597
1888
2218
2352
2266
1983
1674
1487
1520
1766
2099
2325
2306
2083
1779
1535
1511
1707
2038
2320
2382
2197
1893
1615
1490
1601
1897
2218
2367
2265
1974
1664
1483
1535
1809
2164
2393
2353
2099
1767
1530
1502
1703
2045
2337
2397
2224
1904
1619
1509
1641
1951
2273
2416
2303
2007
1691
1510
1535
1808
2163
2400
2384
2160
1847
1617
1609
1807
2142
2421
2481
2311
2013
1744
1634
1749
2054
2355
2475
2347
2047
1761
1584
1625
1871
2194
2395
2353
2106
1776
1519
1472
1659
1985
2269
2331
2161
1867
1606
1518
1658
1969
2288
2416
2292
1997
1671
1483
1520
1789
2130
2353
2323
2091
1791
1557
1535
1730
2060
2320
2364
2176
1853
1567
1455
1587
1923
2230
2368
2262
1975
1675
1499
1553
1823
2165
2384
2354
2112
1778
1521
1455
1615
1915
2185
2263
2160
1950
1793
1811
2071
2491
2928
3193
3183
2927
2559
2242
2062
2064
2166
2199
2071
1810
1502
1279
1266
1472
1809
2089
2118
1933
1639
1387
1322
1488
1855
2208
2367
2275
2010
1713
1535
1589
1849
2171
2358
2315
2100
1808
1597
1573
1761
2086
2351
2384
2207
1907
1648
1558
1681
1974
2275
2395
2287
2000
1707
1534
1600
1867
2219
2432
2414
2192
1877
1637
1595
1791
2112
2361
2402
2241
1959
1687
1590
1707
2003
2315
2441
2334
2075
1799
1648
1700
1956
2281
2467
2414
2165
1856
1647
1629
1840
2183
2448
2490
2307
2005
1735
1645
1779
2097
2409
2531
2417
2150
1861
1712
1778
2047
2370
2559
2526
2289
1989
1787
1787
2004
2342
2599
2618
2422
2125
1856
1767
1905
2221
2512
2624
2502
2233
1937
1777
1830
2074
2379
2559
2510
2283
1983
1766
1744
1924
2229
2455
2471
2288
1997
1737
1648
1770
2059
2326
2414
2265
1953
1639
1471
1535
1814
2137
2315
2260
2014
1717
1501
1501
1705
2003
2242
2258
2071
1767
1495
1406
1533
1858
2156
2263
2135
1856
1571
1406
1466
1745
2083
2283
2241
2004
1711
1490
1473
1679
1995
2248
2277
2087
1789
1530
1449
1585
1879
2155
2250
2128
1861
1594
1456
1535
1809
2127
2289
2219
1963
1659
1450
1454
1670
2000
2251
2271
2078
1776
1527
1463
1627
1936
2219
2302
2159
1871
1587
1451
1535
1841
2183
2368
2299
2042
1738
1518
1502
1699
2011
2254
2269
2075
1774
1511
1443
1610
1933
2219
2302
2163
1883
1610
1469
1562
1851
2177
2339
2273
2022
1721
1509
1510
1729
2062
2303
2293
2081
1771
1505
1439
1600
1925
2228
2333
2204
1930
1657
1515
1600
1871
2187
2351
2269
2005
1699
1485
1483
1706
2037
2281
2285
2078
1779
1535
1488
1662
1983
2274
2350
2187
1886
1598
1457
1569
1867
2209
2381
2317
2066
1758
1535
1535
1760
2077
2287
2275
2070
1774
1535
1485
1662
1983
2268
2345
2207
1922
1650
1520
1615
1901
2203
2347
2246
1978
1674
1468
1479
1718
2061
2306
2317
2118
1825
1594
1535
1711
2031
2311
2383
2229
1929
1635
1494
1597
1890
2206
2351
2257
1973
1691
1502
1526
1773
2106
2333
2324
2121
1822
1587
1522
1685
1998
2272
2339
2189
1897
1623
1482
1595
1879
2202
2365
2293
2041
1750
1573
1590
1826
2153
2352
2321
2100
1798
1567
1534
1715
2035
2317
2383
2232
1942
1667
1535
1641
1932
2256
2410
2317
2055
1758
1581
1610
1856
2190
2427
2427
2228
1925
1686
1635
1794
2097
2346
2384
2217
1918
1641
1516
1623
1923
2246
2379
2283
2017
1712
1520
1531
1773
2079
2291
2273
2064
1765
1555
1515
1703
2030
2298
2341
2164
1859
1591
1472
1599
1904
2215
2348
2242
1966
1675
1499
1535
1789
2113
2314
2288
2065
1757
1520
1475
1675
2000
2261
2307
2144
1855
1601
1511
1641
1936
2241
2365
2242
1942
1602
1399
1432
1706
2061
2320
2378
2257
2070
1959
2028
2320
2743
3133
3245
3037
2626
2171
1835
1744
1895
2103
2176
2032
1745
1457
1302
1360
1616
1941
2164
2150
1938
1674
1482
1475
1680
2012
2288
2337
2174
1875
1612
1504
1627
1930
2237
2359
2243
1953
1648
1472
1532
1823
2167
2383
2352
2130
1824
1586
1535
1727
2037
2305
2369
2221
1924
1685
1594
1731
2038
2345
2442
2304
2019
1730
1584
1649
1917
2240
2431
2378
2129
1823
1601
1582
1776
2099
2354
2401
2223
1921
1664
1585
1740
2061
2364
2480
2359
2082
1780
1615
1662
1921
2253
2460
2431
2199
1915
1702
1688
1901
2219
2469
2494
2307
2014
1763
1694
1840
2160
2455
2559
2446
2170
1872
1722
1791
2063
2384
2559
2512
2278
1982
1771
1757
1967
2301
2559
2624
2446
2142
1867
1778
1919
2239
2537
2646
2509
2210
1904
1735
1783
2031
2349
2527
2479
2237
1922
1702
1669
1853
2160
2387
2384
2173
1870
1587
1488
1616
1904
2197
2313
2194
1919
1631
1479
1535
1808
2132
2307
2262
2021
1723
1530
1535
1762
2083
2316
2319
2117
1792
1535
1462
1612
1919
2206
2295
2161
1877
1600
1451
1522
1792
2125
2317
2260
2015
1716
1519
1535
1771
2094
2306
2303
2091
1787
1535
1485
1637
1946
2247
2337
2203
1913
1627
1474
1562
1840
2158
2315
2239
1985
1683
1476
1482
1709
2025
2278
2309
2128
1834
1586
1502
1648
1954
2253
2346
2215
1929
1648
1494
1563
1835
2146
2310
2242
1993
1706
1510
1526
1759
2083
2320
2320
2128
1840
1594
1511
1664
1982
2273
2358
2224
1936
1653
1509
1593
1871
2190
2356
2289
2029
1730
1535
1553
1791
2127
2352
2343
2125
1814
1567
1497
1657
1979
2246
2323
2176
1898
1635
1525
1647
1951
2274
2417
2330
2069
1744
1518
1511
1728
2057
2291
2315
2128
1837
1594
1535
1714
2028
2315
2387
2241
1954
1675
1535
1642
1921
2225
2385
2320
2077
1786
1600
1616
1835
2135
2341
2320
2111
1809
1584
1533
1710
2029
2307
2377
2223
1936
1666
1555
1661
1943
2256
2395
2305
2041
1744
1558
1584
1811
2133
2347
2327
2116
1826
1596
1535
1717
2033
2321
2395
2255
1963
1687
1559
1663
1952
2256
2403
2309
2045
1750
1577
1613
1840
2158
2362
2343
2131
1839
1600
1553
1733
2064
2337
2405
2247
1955
1683
1571
1663
1934
2230
2358
2260
2005
1726
1559
1599
1810
2145
2357
2331
2109
1801
1574
1535
1735
2073
2362
2423
2258
1958
1679
1561
1675
1959
2270
2415
2326
2076
1787
1603
1629
1867
2179
2383
2352
2123
1808
1583
1558
1759
2082
2349
2397
2234
1929
1648
1521
1635
1951
2273
2411
2303
2034
1741
1575
1623
1872
2193
2384
2343
2110
1808
1594
1567
1755
2079
2351
2406
2238
1936
1659
1535
1668
1969
2281
2407
2292
2025
1735
1575
1631
1874
2193
2395
2370
2155
1854
1619
1591
1766
2084
2331
2363
2181
1879
1618
1527
1668
1968
2283
2406
2301
2032
1746
1586
1631
1881
2203
2390
2343
2098
1809
1600
1589
1776
2090
2337
2383
2218
1930
1671
1587
1735
2032
2327
2433
2302
2013
1720
1562
1616
1872
2209
2421
2411
2208
1932
1728
1714
1915
2239
2490
2510
2304
1982
1703
1599
1727
2030
2333
2449
2337
2064
1773
1609
1655
1904
2203
2384
2334
2091
1775
1535
1520
1733
2075
2337
2375
2192
1904
1643
1535
1675
1979
2277
2389
2269
1993
1707
1558
1614
1869
2183
2362
2302
2047
1741
1521
1523
1747
2085
2340
2373
2195
1911
1657
1572
1695
1987
2272
2364
2226
1946
1664
1520
1591
1830
2123
2275
2192
1927
1633
1463
1535
1840
2278
2637
2761
2665
2466
2320
2343
2525
2801
2965
2864
2511
2047
1613
1373
1397
1653
1973
2161
2110
1869
1578
1381
1392
1617
1951
2205
2228
2039
1758
1521
1472
1637
1951
2245
2345
2210
1933
1648
1493
1563
1838
2162
2343
2283
2044
1764
1563
1563
1783
2111
2334
2335
2138
1837
1599
1522
1674
1979
2279
2383
2254
1971
1683
1553
1621
1878
2167
2322
2257
2021
1736
1535
1573
1792
2109
2353
2379
2186
1882
1642
1573
1714
2014
2300
2384
2256
1979
1710
1584
1679
1974
2275
2433
2352
2096
1786
1586
1601
1831
2162
2399
2407
2210
1904
1667
1614
1776
2096
2390
2486
2365
2100
1826
1691
1761
2026
2331
2494
2431
2197
1908
1737
1748
1979
2317
2544
2544
2334
2037
1807
1762
1930
2256
2544
2623
2464
2173
1883
1746
1821
2089
2377
2521
2438
2177
1870
1668
1675
1898
2221
2432
2414
2183
1861
1616
1569
1742
2055
2315
2367
2193
1887
1600
1455
1535
1811
2118
2263
2180
1927
1642
1458
1485
1727
2055
2285
2273
2047
1728
1472
1423
1596
1914
2192
2257
2109
1821
1558
1431
1535
1825
2141
2285
2182
1897
1584
1389
1417
1663
2000
2241
2242
2058
1769
1559
1526
1701
2002
2258
2305
2141
1854
1584
1458
1558
1840
2139
2271
2173
1907
1626
1456
1488
1737
2063
2275
2253
2018
1711
1484
1458
1652
1955
2241
2287
2112
1818
1535
1450
1562
1843
2130
2241
2146
1898
1617
1456
1515
1774
2112
2319
2294
2071
1771
1535
1504
1687
2004
2269
2318
2139
1853
1590
1489
1616
1904
2198
2317
2206
1935
1648
1465
1511
1747
2096
2290
2243
2002
1699
1471
1450
1648
1965
2241
2317
2161
1871
1617
1520
1642
1923
2218
2341
2231
1949
1647
1479
1534
1791
2119
2323
2295
2064
1756
1526
1502
1699
2017
2281
2326
2157
1861
1600
1502
1627
1939
2249
2369
2251
1961
1662
1475
1515
1771
2096
2289
2254
2014
1739
1531
1523
1729
2063
2317
2355
2174
1859
1567
1466
1586
1879
2210
2341
2231
1959
1669
1497
1555
1808
2128
2320
2281
2043
1743
1521
1509
1712
2032
2275
2304
2128
1840
1574
1473
1615
1935
2244
2374
2273
2002
1719
1534
1559
1806
2114
2299
2247
2014
1735
1555
1554
1754
2073
2309
2337
2154
1854
1594
1497
1626
1920
2219
2320
2192
1909
1638
1504
1591
1867
2193
2366
2304
2060
1766
1573
1572
1774
2095
2327
2342
2149
1853
1578
1496
1651
1970
2274
2374
2241
1968
1689
1534
1598
1859
2181
2359
2295
2037
1734
1523
1535
1754
2081
2323
2350
2157
1856
1600
1519
1669
1982
2286
2379
2243
1961
1678
1532
1615
1883
2190
2359
2293
2054
1744
1552
1558
1786
2121
2359
2363
2151
1839
1577
1497
1646
1955
2238
2315
2163
1871
1609
1497
1621
1919
2243
2416
2345
2096
1792
1590
1603
1826
2155
2391
2399
2197
1898
1652
1591
1743
2043
2319
2396
2256
1977
1708
1575
1659
1936
2259
2433
2370
2119
1817
1616
1617
1837
2157
2387
2399
2187
1879
1648
1584
1722
2019
2293
2363
2208
1907
1626
1488
1578
1847
2172
2343
2274
2017
1723
1521
1535
1753
2073
2307
2310
2099
1805
1535
1491
1649
1952
2231
2315
2175
1885
1601
1466
1571
1857
2176
2337
2255
1994
1695
1488
1503
1741
2065
2297
2302
2096
1792
1535
1488
1653
1962
2223
2262
2079
1754
1462
1342
1454
1783
2170
2417
2448
2317
2153
2074
2191
2512
2929
3212
3157
2779
2250
1774
1509
1513
1729
1947
2005
1863
1584
1343
1231
1346
1649
1958
2107
2018
1779
1527
1383
1446
1723
2078
2315
2321
2117
1819
1589
1552
1711
2023
2285
2335
2175
1869
1594
1478
1598
1898
2212
2358
2263
1995
1701
1518
1566
1808
2166
2375
2352
2138
1840
1606
1571
1745
2058
2320
2385
2224
1922
1647
1531
1647
1943
2256
2413
2320
2064
1770
1598
1630
1871
2192
2394
2368
2155
1861
1654
1642
1835
2154
2407
2455
2279
1978
1699
1590
1705
2011
2319
2453
2347
2091
1809
1653
1712
1962
2288
2492
2459
2231
1930
1710
1689
1886
2213
2477
2521
2352
2069
1801
1706
1825
2128
2434
2582
2481
2222
1931
1767
1815
2071
2389
2598
2559
2331
2026
1813
1794
1985
2308
2559
2605
2407
2097
1810
1696
1808
2106
2394
2502
2377
2096
1787
1603
1645
1879
2189
2363
2307
2045
1744
1513
1487
1679
1996
2256
2294
2111
1794
1519
1418
1535
1842
2149
2273
2162
1899
1617
1455
1505
1751
2063
2244
2204
1973
1675
1460
1453
1656
1981
2236
2261
2083
1780
1517
1422
1532
1844
2146
2258
2139
1864
1573
1417
1477
1750
2080
2268
2218
1971
1661
1424
1408
1626
1966
2239
2282
2111
1814
1553
1457
1591
1897
2191
2298
2184
1906
1614
1453
1504
1762
2083
2276
2229
1987
1690
1479
1481
1699
2024
2271
2282
2085
1779
1522
1451
1605
1917
2205
2302
2167
1887
1602
1450
1520
1789
2107
2279
2224
1982
1703
1494
1494
1716
2035
2282
2285
2081
1775
1517
1446
1597
1904
2198
2304
2181
1919
1638
1488
1562
1808
2119
2288
2223
1951
1679
1473
1486
1712
2073
2323
2329
2113
1797
1535
1472
1648
1958
2231
2320
2185
1904
1605
1456
1520
1797
2126
2308
2251
2007
1711
1501
1503
1726
2058
2287
2291
2094
1787
1535
1479
1647
1968
2266
2353
2222
1923
1633
1474
1535
1808
2125
2300
2237
1984
1691
1511
1535
1773
2101
2330
2332
2128
1825
1571
1482
1621
1925
2212
2298
2154
1872
1607
1478
1561
1825
2139
2311
2254
2014
1723
1535
1570
1808
2134
2365
2367
2158
1845
1599
1526
1677
1965
2231
2306
2176
1919
1675
1563
1653
1935
2251
2403
2323
2070
1776
1590
1607
1852
2183
2413
2407
2194
1881
1634
1571
1725
2006
2285
2343
2187
1893
1617
1477
1577
1867
2180
2329
2242
1983
1689
1499
1529
1772
2102
2320
2306
2096
1787
1535
1501
1679
1994
2274
2340
2174
1875
1599
1468
1570
1847
2163
2322
2250
2001
1719
1535
1565
1791
2096
2287
2259
2062
1775
1565
1535
1721
2020
2281
2321
2155
1853
1566
1426
1511
1793
2112
2285
2249
2087
1906
1853
2001
2352
2759
3056
3101
2866
2479
2071
1793
1727
1849
1995
2000
1833
1554
1313
1231
1360
1690
1977
2107
1993
1733
1465
1327
1406
1693
2038
2262
2249
2033
1767
1535
1521
1727
2055
2326
2384
2219
1926
1665
1570
1686
1978
2282
2399
2282
2003
1714
1535
1605
1872
2207
2415
2380
2160
1863
1650
1622
1794
2109
2353
2386
2209
1920
1667
1584
1699
1987
2277
2386
2268
1993
1723
1587
1653
1910
2237
2429
2381
2159
1843
1626
1615
1809
2144
2405
2447
2275
1969
1712
1617
1742
2043
2342
2448
2332
2075
1793
1644
1716
2007
2337
2537
2493
2258
1951
1730
1711
1904
2240
2497
2535
2358
2081
1818
1733
1861
2159
2446
2549
2429
2153
1862
1723
1817
2102
2435
2641
2602
2358
2061
1840
1822
2011
2322
2559
2589
2391
2087
1808
1700
1803
2091
2363
2453
2315
2017
1715
1557
1621
1900
2233
2421
2362
2106
1789
1565
1552
1745
2046
2285
2304
2107
1781
1491
1397
1535
1861
2176
2297
2175
1890
1590
1433
1484
1746
2066
2255
2195
1948
1647
1425
1420
1616
1978
2239
2263
2070
1766
1501
1412
1552
1867
2166
2266
2146
1864
1595
1433
1490
1759
2085
2256
2193
1947
1649
1446
1450
1665
1987
2240
2263
2071
1769
1507
1433
1586
1901
2192
2287
2154
1872
1584
1435
1506
1783
2112
2285
2227
1991
1703
1497
1495
1713
2041
2288
2301
2103
1802
1535
1472
1627
1929
2211
2299
2167
1887
1601
1462
1535
1821
2143
2304
2222
1967
1685
1507
1523
1751
2073
2295
2287
2078
1776
1523
1467
1622
1945
2240
2323
2179
1901
1623
1499
1602
1881
2193
2349
2256
1983
1686
1483
1495
1728
2059
2293
2288
2081
1774
1531
1489
1669
1988
2278
2352
2199
1911
1637
1497
1598
1882
2202
2358
2278
2021
1728
1535
1567
1785
2091
2333
2357
2175
1885
1653
1600
1758
2064
2333
2409
2257
1973
1698
1570
1645
1923
2233
2378
2290
2032
1741
1552
1573
1788
2096
2299
2288
2067
1767
1522
1472
1648
1962
2240
2309
2153
1858
1591
1481
1598
1903
2206
2352
2255
1984
1687
1491
1520
1759
2079
2291
2272
2055
1751
1495
1441
1621
1961
2258
2346
2207
1920
1642
1510
1605
1886
2187
2323
2237
1971
1679
1490
1514
1743
2035
2221
2176
1951
1667
1482
1520
1790
2251
2645
2817
2751
2545
2354
2300
2391
2559
2688
2597
2275
1841
1439
1211
1232
1485
1840
2089
2096
1891
1591
1354
1331
1526
1868
2160
2227
2085
1811
1575
1490
1627
1934
2247
2381
2279
2003
1710
1526
1567
1819
2166
2371
2345
2121
1825
1595
1535
1727
2032
2288
2323
2151
1867
1634
1557
1689
1993
2303
2422
2301
2015
1716
1535
1589
1849
2191
2413
2389
2171
1871
1635
1599
1783
2107
2368
2415
2241
1949
1691
1599
1718
2013
2303
2416
2311
2041
1754
1590
1635
1902
2229
2423
2387
2160
1857
1640
1629
1840
2180
2452
2499
2325
2023
1758
1659
1789
2096
2391
2507
2398
2139
1863
1719
1792
2064
2384
2559
2530
2291
1990
1776
1762
1968
2299
2557
2593
2401
2103
1844
1750
1891
2210
2517
2641
2513
2233
1927
1754
1795
2023
2339
2507
2442
2191
1883
1662
1633
1815
2119
2352
2373
2192
1889
1627
1535
1674
1961
2234
2317
2181
1899
1616
1465
1530
1795
2115
2293
2237
1986
1683
1473
1463
1677
1998
2245
2273
2096
1807
1554
1477
1619
1907
2195
2294
2170
1897
1616
1478
1555
1827
2141
2305
2235
1974
1666
1444
1445
1670
2001
2255
2274
2086
1795
1554
1483
1631
1927
2212
2299
2160
1881
1584
1451
1535
1817
2144
2320
2247
1981
1670
1456
1461
1685
2032
2287
2307
2115
1813
1565
1488
1650
1956
2251
2338
2206
1920
1637
1488
1567
1841
2171
2345
2279
2032
1738
1522
1531
1755
2079
2301
2286
2073
1771
1531
1473
1637
1947
2233
2308
2160
1866
1587
1461
1564
1862
2191
2363
2295
2054
1746
1563
1569
1787
2111
2334
2337
2125
1811
1566
1505
1679
1991
2286
2360
2222
1933
1648
1505
1587
1867
2191
2367
2299
2055
1761
1578
1596
1824
2142
2357
2333
2107
1789
1553
1513
1697
2020
2304
2371
2223
1934
1663
1535
1635
1922
2232
2384
2307
2062
1769
1584
1606
1840
2170
2401
2410
2211
1920
1680
1635
1794
2103
2366
2423
2266
1975
1707
1587
1680
1981
2258
2383
2271
1987
1681
1495
1530
1779
2115
2343
2334
2122
1813
1581
1525
1701
2013
2277
2317
2156
1855
1588
1482
1607
1907
2220
2350
2240
1979
1693
1513
1535
1788
2113
2322
2291
2075
1786
1559
1523
1712
2017
2281
2324
2151
1843
1583
1485
1616
1927
2240
2354
2224
1920
1600
1409
1456
1746
2135
2430
2498
2373
2175
2047
2114
2382
2783
3126
3186
2915
2439
1952
1633
1573
1744
1981
2091
1979
1723
1451
1296
1345
1600
1926
2143
2129
1922
1659
1476
1479
1687
2019
2289
2330
2160
1863
1600
1501
1634
1936
2244
2377
2285
2023
1741
1579
1622
1878
2208
2411
2379
2159
1860
1617
1563
1737
2059
2322
2383
2221
1930
1673
1581
1699
2000
2303
2418
2320
2059
1771
1602
1648
1890
2195
2382
2341
2113
1814
1595
1581
1786
2123
2401
2451
2274
1981
1716
1630
1747
2058
2352
2465
2346
2074
1790
1646
1713
1968
2283
2465
2416
2192
1891
1678
1664
1862
2201
2475
2531
2362
2071
1805
1701
1818
2123
2420
2535
2425
2167
1895
1761
1845
2118
2425
2606
2546
2327
2055
1871
1866
2047
2352
2588
2614
2413
2111
1869
1811
1953
2245
2513
2608
2478
2211
1920
1753
1792
2021
2313
2470
2399
2149
1840
1636
1629
1837
2160
2399
2391
2176
1865
1600
1507
1642
1938
2229
2320
2182
1887
1605
1459
1556
1841
2167
2347
2295
2061
1756
1558
1558
1763
2081
2314
2320
2128
1835
1588
1505
1643
1955
2256
2353
2224
1942
1664
1533
1629
1914
2238
2404
2335
2076
1766
1552
1535
1767
2099
2346
2358
2162
1869
1620
1535
1686
1989
2279
2367
2223
1947
1673
1535
1639
1922
2251
2422
2365
2111
1808
1602
1600
1808
2129
2370
2384
2192
1906
1678
1626
1776
2092
2357
2433
2288
2007
1739
1605
1689
1968
2296
2462
2383
2126
1808
1615
1626
1857
2183
2416
2422
2225
1936
1699
1646
1829
2147
2437
2516
2363
2067
1779
1632
1711
1991
2315
2485
2422
2180
1884
1690
1694
1891
2211
2443
2449
2256
1971
1739
1687
1849
2160
2427
2486
2339
2065
1803
1691
1794
2090
2394
2545
2467
2215
1926
1744
1767
1998
2323
2544
2534
2318
2005
1766
1714
1885
2201
2470
2539
2387
2101
1818
1694
1805
2112
2411
2555
2471
2209
1915
1744
1782
2036
2375
2599
2559
2339
2041
1797
1745
1915
2241
2518
2603
2448
2176
1903
1777
1871
2167
2477
2623
2518
2274
1994
1832
1869
2111
2431
2640
2624
2404
2106
1866
1828
2019
2367
2643
2733
2587
2304
2057
1965
2087
2361
2642
2751
2626
2335
2034
1864
1905
2157
2480
2683
2650
2416
2106
1868
1837
2021
2358
2637
2689
2508
2217
1940
1837
1947
2256
2579
2710
2591
2304
2009
1843
1897
2155
2476
2675
2640
2405
2109
1883
1863
2057
2367
2625
2672
2495
2213
1937
1847
1975
2283
2583
2705
2599
2334
2056
1895
1948
2205
2518
2706
2654
2402
2097
1856
1814
1984
2289
2545
2614
2479
2258
2090
2096
2325
2735
3149
3393
3378
3181
2926
2737
2673
2736
2832
2823
2624
2291
1945
1708
1692
1905
2243
2493
2518
2335
2041
1803
1763
1936
2279
2607
2722
2603
2320
2038
1903
1987
2251
2559
2759
2699
2446
2144
1922
1914
2125
2459
2725
2767
2583
2279
2007
1922
2066
2382
2689
2812
2704
2434
2161
2000
2055
2304
2613
2790
2729
2490
2202
1999
1993
2198
2514
2768
2799
2610
2319
2069
1989
2129
2432
2723
2827
2691
2413
2142
2005
2090
2354
2683
2866
2803
2553
2257
2061
2063
2283
2608
2855
2866
2671
2373
2128
2060
2210
2525
2830
2938
2816
2539
2256
2103
2169
2430
2751
2927
2865
2635
2352
2166
2184
2414
2741
2987
3006
2806
2498
2249
2182
2330
2637
2936
3045
2912
2641
2367
2227
2290
2559
2880
3057
2999
2750
2443
2234
2223
2416
2710
2930
2928
2704
2384
2112
2012
2135
2435
2722
2806
2668
2374
2094
1947
2015
2274
2559
2736
2671
2421
2149
1968
1985
2210
2518
2720
2682
2447
2137
1885
1831
2016
2346
2650
2725
2559
2266
1986
1863
1963
2240
2544
2679
2559
2307
2019
1834
1856
2112
2445
2673
2671
2475
2181
1942
1858
2006
2319
2598
2666
2512
2237
1969
1856
1952
2233
2527
2668
2559
2306
2000
1830
1861
2112
2439
2662
2642
2436
2154
1926
1875
2043
2342
2607
2668
2502
2221
1947
1830
1933
2224
2524
2672
2581
2317
2019
1840
1865
2096
2402
2608
2559
2352
2069
1856
1835
2019
2339
2599
2640
2457
2151
1886
1776
1885
2187
2503
2647
2545
2294
2011
1835
1872
2111
2427
2627
2592
2354
2041
1799
1767
1955
2289
2559
2633
2467
2187
1923
1823
1919
2209
2501
2633
2522
2261
1969
1805
1855
2110
2425
2624
2577
2339
2027
1803
1773
1949
2263
2530
2595
2445
2166
1907
1805
1904
2180
2465
2591
2471
2203
1920
1753
1798
2057
2383
2586
2534
2296
1995
1782
1758
1949
2275
2542
2604
2433
2145
1878
1776
1883
2162
2447
2555
2447
2176
1889
1730
1781
2029
2345
2538
2489
2247
1944
1738
1728
1941
2250
2491
2512
2319
2017
1762
1687
1840
2141
2438
2553
2443
2162
1853
1675
1717
1965
2276
2471
2447
2233
1947
1733
1703
1882
2193
2431
2448
2259
1969
1744
1673
1813
2113
2389
2489
2365
2096
1808
1662
1719
1971
2278
2448
2385
2142
1840
1647
1648
1855
2175
2409
2422
2238
1958
1723
1648
1779
2073
2341
2428
2289
2013
1731
1594
1675
1937
2249
2419
2368
2135
1841
1642
1642
1856
2170
2400
2403
2208
1915
1664
1584
1702
1991
2278
2367
2235
1968
1709
1589
1667
1941
2247
2406
2330
2086
1792
1610
1616
1823
2139
2366
2384
2185
1881
1638
1574
1719
2017
2291
2368
2227
1963
1697
1581
1646
1905
2226
2384
2289
2017
1719
1555
1599
1840
2173
2402
2387
2171
1872
1616
1535
1686
1989
2263
2343
2201
1923
1657
1520
1604
1886
2192
2350
2285
2037
1747
1560
1570
1781
2095
2309
2299
2096
1794
1569
1520
1691
2000
2274
2352
2206
1920
1648
1518
1600
1879
2197
2359
2283
2029
1738
1533
1535
1776
2096
2291
2271
2062
1767
1534
1488
1659
1967
2242
2319
2172
1889
1622
1496
1595
1872
2176
2320
2239
1991
1701
1505
1521
1760
2102
2335
2338
2134
1840
1623
1605
1784
2103
2370
2430
2259
1968
1677
1559
1655
1927
2235
2369
2271
2000
1697
1498
1516
1738
2040
2237
2203
1994
1707
1475
1438
1607
1913
2171
2218
2038
1759
1490
1386
1482
1769
2064
2195
2112
1872
1607
1442
1483
1729
2045
2247
2224
1991
1712
1467
1418
1599
1914
2182
2233
2064
1758
1478
1366
1475
1767
2093
2227
2141
1872
1584
1399
1413
1631
1910
2089
2039
1819
1562
1391
1445
1739
2174
2559
2736
2682
2497
2328
2275
2350
2496
2579
2465
2143
1706
1326
1114
1151
1415
1758
1975
1952
1727
1407
1165
1135
1340
1680
1983
2065
1921
1659
1415
1339
1469
1771
2067
2181
2070
1801
1520
1351
1399
1661
1983
2176
2127
1904
1622
1415
1397
1606
1936
2197
2240
2059
1742
1488
1392
1511
1805
2101
2209
2097
1820
1535
1389
1456
1713
2011
2207
2164
1937
1653
1435
1411
1606
1923
2183
2220
2042
1761
1508
1424
1559
1856
2145
2250
2128
1854
1581
1415
1487
1749
2066
2253
2206
1987
1687
1478
1459
1661
1984
2240
2278
2112
1830
1584
1509
1648
1944
2227
2323
2203
1948
1690
1556
1617
1872
2176
2346
2290
2064
1778
1595
1611
1825
2153
2390
2407
2221
1917
1663
1583
1715
2013
2307
2423
2309
2036
1744
1600
1665
1934
2248
2412
2355
2111
1787
1558
1525
1713
2007
2237
2231
2033
1732
1488
1410
1535
1823
2097
2179
2032
1744
1450
1296
1367
1649
1967
2137
2069
1811
1514
1311
1319
1533
1855
2089
2087
1877
1583
1331
1261
1402
1712
1990
2087
1958
1687
1423
1297
1391
1680
1986
2138
2047
1783
1479
1273
1288
1515
1863
2112
2117
1903
1591
1327
1247
1403
1721
2000
2096
1973
1711
1454
1330
1408
1683
1987
2151
2066
1808
1506
1309
1309
1529
1862
2096
2098
1901
1606
1365
1314
1479
1795
2073
2144
2005
1717
1458
1344
1436
1722
2015
2145
2037
1767
1463
1291
1327
1573
1914
2150
2149
1939
1647
1407
1356
1518
1839
2104
2175
2005
1728
1456
1333
1420
1699
2000
2145
2064
1824
1553
1389
1417
1644
1941
2149
2127
1907
1615
1386
1353
1523
1846
2112
2155
1973
1681
1419
1326
1441
1744
2061
2207
2117
1867
1582
1394
1412
1639
1942
2145
2119
1903
1616
1373
1335
1512
1840
2118
2187
2032
1744
1479
1391
1495
1778
2077
2198
2096
1829
1535
1378
1409
1642
1951
2154
2123
1906
1622
1414
1401
1600
1907
2167
2214
2038
1739
1463
1360
1470
1761
2066
2200
2103
1835
1535
1369
1401
1648
1963
2170
2143
1924
1639
1423
1394
1572
1875
2149
2211
2045
1763
1495
1392
1507
1802
2098
2221
2118
1865
1563
1408
1470
1728
2035
2228
2176
1936
1629
1408
1389
1581
1901
2159
2201
2032
1742
1463
1360
1479
1783
2095
2210
2102
1845
1584
1433
1486
1737
2045
2224
2169
1925
1620
1414
1406
1600
1919
2173
2199
2023
1744
1501
1439
1599
1903
2206
2309
2187
1907
1624
1457
1511
1770
2087
2273
2217
1982
1680
1462
1456
1676
2005
2274
2320
2157
1872
1615
1522
1657
1955
2234
2330
2198
1914
1625
1463
1510
1739
2031
2194
2135
1894
1613
1419
1427
1653
1985
2243
2274
2096
1809
1569
1477
1613
1903
2182
2261
2112
1823
1531
1383
1457
1730
2054
2239
2186
1934
1627
1423
1431
1654
1973
2213
2225
2033
1740
1487
1418
1564
1859
2144
2242
2122
1853
1565
1417
1488
1757
2061
2219
2146
1892
1585
1359
1344
1535
1862
2138
2211
2106
1913
1764
1792
2030
2425
2795
2977
2901
2623
2254
1942
1822
1903
2064
2112
1967
1684
1375
1184
1204
1438
1772
1997
1990
1798
1519
1310
1280
1456
1805
2100
2194
2067
1795
1535
1429
1522
1803
2105
2256
2173
1916
1609
1422
1430
1658
1982
2210
2203
1983
1685
1448
1402
1582
1904
2192
2286
2145
1858
1584
1459
1553
1838
2151
2298
2211
1958
1667
1478
1503
1737
2057
2267
2253
2043
1758
1507
1456
1622
1937
2224
2309
2161
1878
1602
1472
1570
1847
2159
2308
2235
1989
1727
1552
1587
1817
2133
2346
2322
2123
1808
1577
1519
1707
2029
2319
2390
2246
1963
1697
1586
1689
1968
2282
2421
2329
2081
1794
1622
1664
1904
2227
2449
2448
2227
1921
1695
1655
1840
2162
2432
2491
2331
2046
1789
1681
1793
2082
2375
2499
2400
2134
1837
1664
1710
1954
2229
2413
2371
2134
1808
1559
1505
1678
1985
2250
2304
2135
1845
1535
1427
1520
1793
2081
2198
2102
1840
1555
1376
1413
1663
1968
2153
2103
1867
1578
1362
1360
1574
1904
2173
2218
2039
1743
1472
1361
1474
1776
2080
2203
2096
1825
1535
1370
1409
1659
1968
2160
2112
1881
1593
1381
1369
1584
1914
2163
2192
2003
1703
1435
1351
1478
1793
2101
2215
2099
1813
1517
1344
1407
1691
2030
2240
2220
1999
1709
1488
1470
1680
1978
2229
2253
2059
1744
1470
1373
1499
1808
2105
2214
2096
1824
1535
1405
1467
1719
2029
2214
2167
1940
1662
1465
1455
1657
1968
2214
2238
2043
1745
1485
1393
1520
1811
2103
2209
2087
1830
1565
1433
1520
1810
2139
2320
2263
2003
1693
1459
1434
1621
1933
2178
2196
2011
1731
1493
1427
1584
1887
2174
2270
2145
1865
1597
1452
1518
1782
2093
2263
2208
1961
1654
1452
1460
1699
2039
2284
2289
2085
1777
1520
1453
1613
1922
2219
2307
2171
1888
1611
1465
1533
1808
2134
2306
2233
1981
1673
1466
1471
1684
2003
2240
2246
2060
1774
1530
1465
1619
1909
2183
2261
2122
1852
1602
1479
1575
1845
2151
2306
2230
1967
1687
1495
1510
1730
2054
2281
2275
2070
1766
1518
1451
1601
1910
2187
2288
2177
1908
1645
1501
1582
1849
2147
2294
2209
1959
1667
1467
1474
1711
2029
2258
2256
2047
1755
1520
1488
1665
1982
2251
2325
2170
1870
1584
1455
1563
1859
2181
2342
2261
2014
1714
1519
1522
1744
2064
2285
2271
2053
1752
1521
1487
1663
1983
2271
2342
2185
1895
1626
1505
1606
1891
2195
2342
2257
2003
1714
1511
1530
1765
2087
2298
2284
2067
1764
1535
1499
1674
1990
2259
2319
2151
1857
1582
1447
1529
1809
2123
2257
2163
1923
1653
1500
1562
1810
2141
2348
2321
2096
1783
1554
1521
1725
2030
2306
2379
2229
1950
1683
1574
1675
1951
2259
2413
2327
2078
1799
1622
1648
1872
2176
2384
2366
2143
1845
1619
1575
1745
2064
2320
2363
2189
1885
1616
1507
1613
1899
2202
2351
2266
2001
1715
1519
1535
1790
2112
2315
2288
2073
1769
1535
1490
1671
1986
2250
2301
2129
1840
1584
1481
1614
1895
2191
2319
2224
1968
1693
1530
1585
1830
2146
2349
2319
2093
1779
1562
1521
1702
2007
2269
2305
2128
1822
1584
1488
1599
1862
2133
2226
2107
1849
1611
1523
1679
2034
2454
2753
2810
2681
2477
2339
2352
2486
2666
2720
2547
2193
1770
1421
1285
1392
1685
2000
2145
2047
1783
1517
1369
1430
1692
2027
2240
2224
2000
1718
1499
1491
1710
2030
2274
2301
2113
1814
1558
1471
1616
1934
2238
2345
2226
1962
1679
1513
1568
1823
2144
2333
2281
2032
1735
1526
1526
1747
2078
2323
2349
2155
1849
1591
1498
1639
1942
2245
2363
2253
1979
1692
1535
1602
1860
2170
2341
2297
2079
1795
1611
1606
1802
2122
2362
2369
2176
1875
1647
1566
1712
2018
2306
2407
2279
2001
1727
1600
1675
1955
2285
2463
2413
2160
1858
1647
1648
1866
2192
2437
2457
2267
1982
1729
1664
1808
2117
2402
2501
2385
2128
1857
1728
1808
2087
2406
2559
2512
2269
1975
1773
1783
2000
2336
2559
2591
2389
2091
1835
1764
1915
2218
2499
2583
2434
2144
1845
1689
1743
1997
2298
2449
2373
2118
1799
1583
1572
1779
2108
2333
2323
2112
1802
1553
1488
1638
1933
2199
2279
2146
1863
1593
1457
1535
1815
2129
2290
2221
1961
1657
1462
1481
1716
2053
2271
2270
2066
1764
1513
1447
1604
1922
2222
2299
2151
1853
1579
1441
1530
1809
2123
2282
2198
1941
1648
1458
1472
1699
2027
2259
2269
2080
1790
1557
1499
1656
1959
2226
2295
2147
1855
1584
1457
1535
1840
2138
2292
2213
1967
1675
1485
1499
1735
2064
2293
2291
2096
1792
1567
1508
1679
1973
2240
2301
2154
1863
1589
1471
1571
1853
2158
2295
2208
1943
1649
1467
1503
1750
2085
2311
2310
2097
1795
1535
1488
1658
1965
2239
2301
2150
1862
1591
1472
1600
1905
2230
2373
2267
1995
1690
1507
1535
1801
2132
2346
2318
2097
1808
1591
1566
1744
2042
2291
2321
2151
1874
1600
1499
1619
1914
2211
2337
2236
1968
1690
1520
1571
1820
2149
2335
2299
2066
1760
1535
1517
1703
2018
2286
2331
2160
1872
1615
1520
1658
1959
2259
2384
2281
2015
1719
1535
1594
1853
2184
2383
2337
2108
1808
1588
1535
1716
2013
2275
2329
2166
1872
1615
1526
1670
1970
2275
2389
2269
1983
1678
1490
1535
1807
2143
2351
2320
2097
1811
1593
1575
1747
2043
2283
2320
2154
1869
1616
1525
1657
1952
2253
2369
2257
1977
1699
1535
1610
1863
2170
2352
2306
2081
1787
1574
1554
1751
2070
2318
2347
2159
1856
1594
1505
1654
1955
2242
2352
2237
1973
1696
1553
1635
1906
2224
2399
2346
2111
1811
1597
1582
1776
2087
2318
2330
2141
1837
1571
1491
1654
1969
2278
2399
2291
2023
1738
1583
1633
1887
2194
2363
2290
2043
1749
1535
1535
1746
2070
2322
2350
2165
1875
1627
1535
1666
1982
2274
2374
2253
1979
1707
1562
1630
1902
2224
2390
2322
2083
1789
1584
1568
1767
2093
2341
2361
2171
1868
1613
1535
1682
1987
2287
2394
2273
1993
1714
1584
1670
1936
2250
2402
2334
2089
1787
1584
1584
1792
2112
2347
2362
2160
1873
1635
1580
1730
2045
2327
2415
2270
1983
1702
1561
1639
1904
2240
2402
2332
2088
1787
1585
1600
1807
2113
2337
2334
2131
1845
1611
1563
1719
2034
2335
2430
2295
2013
1744
1617
1706
1971
2267
2415
2343
2102
1809
1625
1647
1873
2215
2451
2455
2255
1954
1712
1650
1805
2106
2369
2432
2288
2003
1728
1602
1696
1965
2257
2385
2271
1983
1671
1483
1519
1775
2119
2353
2349
2149
1848
1607
1552
1719
2029
2289
2352
2193
1911
1643
1514
1600
1874
2178
2323
2247
2011
1731
1567
1592
1814
2135
2341
2313
2096
1791
1557
1506
1680
1998
2246
2312
2160
1873
1621
1520
1642
1931
2230
2357
2239
1936
1615
1411
1442
1702
2078
2358
2428
2303
2095
1951
2009
2290
2718
3091
3209
2997
2559
2112
1794
1713
1866
2075
2160
2036
1778
1511
1355
1383
1618
1938
2166
2160
1963
1706
1488
1467
1664
1981
2255
2320
2180
1915
1667
1555
1632
1894
2181
2304
2208
1936
1644
1459
1491
1744
2087
2320
2320
2124
1823
1590
1535
1727
2041
2299
2343
2176
1891
1642
1535
1668
1942
2261
2388
2287
2011
1728
1565
1600
1849
2171
2370
2336
2118
1831
1621
1609
1802
2124
2382
2416
2232
1920
1647
1534
1642
1953
2256
2368
2256
2002
1738
1590
1648
1908
2238
2431
2393
2167
1871
1650
1632
1824
2145
2399
2443
2283
2002
1744
1651
1778
2084
2390
2519
2422
2167
1893
1743
1802
2061
2372
2559
2515
2290
2000
1793
1782
1967
2283
2527
2553
2369
2087
1827
1755
1904
2224
2530
2651
2522
2239
1933
1761
1809
2059
2357
2518
2450
2199
1893
1667
1651
1847
2160
2384
2385
2178
1859
1594
1499
1623
1923
2208
2310
2185
1903
1616
1466
1531
1814
2138
2315
2251
1998
1690
1473
1459
1669
1994
2251
2275
2096
1794
1535
1462
1607
1909
2196
2291
2160
1898
1604
1451
1519
1793
2115
2288
2226
1971
1676
1472
1490
1723
2026
2259
2262
2065
1759
1519
1441
1585
1889
2191
2289
2164
1878
1601
1456
1535
1821
2149
2319
2247
1994
1695
1495
1501
1725
2042
2275
2277
2077
1780
1529
1470
1631
1937
2224
2311
2175
1884
1603
1465
1565
1853
2174
2337
2265
2015
1722
1521
1521
1728
2029
2251
2246
2039
1751
1511
1470
1643
1968
2256
2339
2195
1907
1631
1494
1584
1856
2167
2320
2239
1970
1696
1511
1534
1773
2101
2333
2325
2109
1791
1535
1488
1648
1961
2242
2320
2170
1872
1597
1483
1598
1886
2192
2342
2261
2002
1709
1521
1558
1799
2119
2332
2320
2113
1801
1535
1483
1648
1968
2256
2346
2195
1909
1633
1505
1596
1869
2178
2329
2245
1993
1712
1534
1564
1797
2126
2340
2323
2118
1811
1574
1522
1697
2007
2277
2342
2181
1899
1618
1503
1616
1914
2229
2383
2304
2043
1745
1557
1579
1803
2126
2342
2325
2114
1819
1600
1557
1731
2032
2288
2345
2176
1885
1618
1505
1619
1901
2204
2338
2249
1990
1706
1531
1563
1798
2119
2327
2315
2108
1811
1598
1562
1733
2041
2304
2352
2186
1895
1633
1527
1661
1967
2282
2416
2308
2033
1733
1535
1581
1808
2121
2319
2289
2075
1791
1581
1556
1742
2061
2324
2368
2194
1890
1616
1501
1603
1889
2189
2337
2267
2027
1749
1588
1628
1867
2179
2374
2335
2110
1798
1573
1535
1740
2073
2339
2391
2225
1930
1666
1575
1691
1981
2275
2383
2261
1984
1699
1535
1595
1842
2140
2325
2290
2074
1776
1557
1531
1728
2047
2304
2359
2198
1917
1648
1555
1682
1984
2288
2403
2293
2028
1738
1573
1617
1857
2157
2343
2306
2089
1797
1587
1573
1767
2086
2329
2352
2171
1879
1639
1562
1698
1982
2262
2385
2281
2014
1739
1599
1676
1950
2271
2451
2393
2145
1839
1636
1626
1839
2163
2416
2433
2245
1943
1691
1618
1762
2075
2368
2465
2350
2065
1767
1605
1661
1911
2221
2391
2330
2079
1770
1535
1521
1725
2021
2277
2309
2140
1869
1634
1562
1712
2022
2321
2427
2290
1998
1689
1530
1587
1853
2166
2351
2299
2064
1775
1578
1581
1776
2087
2314
2326
2121
1831
1590
1520
1669
1977
2271
2368
2226
1936
1653
1511
1595
1886
2191
2352
2249
1959
1644
1439
1457
1710
2086
2397
2501
2410
2227
2099
2135
2381
2780
3165
3312
3114
2646
2126
1729
1584
1701
1931
2064
1983
1737
1445
1262
1281
1507
1822
2047
2070
1883
1616
1411
1405
1615
1945
2250
2352
2227
1949
1677
1535
1637
1906
2219
2371
2288
2025
1719
1520
1535
1776
2117
2368
2372
2174
1872
1630
1575
1729
2032
2306
2370
2215
1917
1641
1515
1617
1907
2229
2384
2309
2074
1787
1596
1606
1839
2171
2390
2391
2184
1891
1661
1613
1781
2103
2381
2448
2293
1999
1715
1585
1665
1965
2286
2449
2373
2128
1840
1659
1683
1919
2257
2480
2458
2242
1915
1663
1603
1766
2085
2362
2430
2269
1987
1744
1665
1799
2127
2449
2613
2518
2257
1959
1781
1801
2032
2355
2578
2559
2358
2078
1855
1808
1970
2283
2542
2603
2437
2161
1899
1791
1893
2183
2498
2662
2579
2304
1982
1776
1791
2010
2310
2493
2459
2234
1926
1690
1626
1778
2077
2326
2371
2205
1903
1620
1493
1603
1902
2206
2342
2241
1974
1679
1475
1488
1708
2008
2224
2215
1996
1710
1487
1456
1645
1965
2231
2279
2100
1807
1513
1394
1501
1793
2094
2215
2127
1894
1638
1472
1521
1778
2103
2294
2252
2014
1695
1463
1424
1605
1923
2194
2251
2086
1805
1535
1424
1525
1819
2130
2263
2176
1926
1648
1485
1531
1785
2103
2288
2240
2002
1712
1488
1459
1641
1949
2218
2266
2105
1816
1555
1458
1591
1899
2202
2320
2206
1931
1647
1482
1533
1802
2143
2351
2304
2047
1728
1493
1478
1695
2027
2286
2323
2146
1836
1562
1471
1613
1919
2214
2320
2202
1927
1638
1465
1500
1760
2086
2288
2261
2032
1738
1520
1513
1728
2061
2309
2346
2174
1854
1584
1498
1633
1934
2228
2327
2207
1932
1647
1486
1535
1810
2129
2307
2250
2012
1727
1527
1527
1739
2065
2311
2337
2149
1856
1589
1486
1616
1926
2207
2304
2175
1898
1623
1500
1601
1891
2224
2384
2327
2066
1750
1535
1523
1728
2057
2294
2315
2129
1840
1595
1517
1667
1972
2270
2370
2243
1966
1680
1529
1584
1839
2143
2311
2259
2026
1744
1567
1572
1780
2115
2355
2361
2160
1857
1601
1510
1663
1968
2258
2337
2196
1919
1645
1507
1609
1898
2224
2391
2320
2068
1779
1585
1598
1797
2145
2382
2379
2159
1840
1584
1501
1646
1939
2223
2321
2208
1947
1685
1565
1648
1930
2242
2397
2316
2046
1739
1520
1519
1745
2067
2303
2311
2128
1869
1644
1591
1737
2030
2301
2385
2245
1970
1705
1582
1665
1942
2256
2415
2350
2096
1803
1605
1605
1813
2135
2372
2384
2194
1920
1710
1660
1817
2115
2393
2454
2283
1969
1682
1535
1645
1925
2224
2354
2257
1993
1699
1522
1557
1785
2108
2326
2321
2118
1825
1597
1557
1729
2029
2298
2354
2192
1897
1616
1487
1595
1877
2202
2352
2267
2009
1728
1535
1581
1815
2131
2347
2320
2103
1809
1565
1511
1677
1998
2285
2352
2199
1919
