2851
2810
2711
2559
2482
2490
2583
2698
2768
2790
2755
2685
2631
2627
2666
2718
2736
2698
2624
2519
2449
2433
2512
2653
2763
2843
2882
2870
2845
2836
2871
2935
2941
2869
2751
2608
2449
2366
2365
2445
2541
2635
2701
2710
2671
2621
2618
2675
2777
2857
2864
2813
2710
2608
2543
2543
2599
2642
2662
2642
2619
2593
2559
2559
2608
2617
2583
2516
2428
2357
2347
2387
2459
2545
2603
2598
2544
2482
2449
2479
2558
2645
2703
2693
2630
2523
2381
2263
2236
2315
2457
2597
2651
2617
2526
2453
2429
2457
2522
2559
2587
2559
2490
2437
2446
2511
2624
2739
2830
2829
2740
2606
2474
2386
2371
2379
2391
2400
2379
2333
2297
2301
2343
2387
2413
2397
2363
2332
2321
2358
2445
2556
2653
2698
2679
2607
2506
2466
2459
2479
2493
2466
2398
2295
2189
2117
2097
2128
2192
2239
2238
2193
2107
2017
1977
2000
2078
2149
2179
2160
2095
2007
1958
1975
2033
2128
2177
2167
2089
1962
1861
1834
1870
1936
1984
1974
1911
1804
1702
1659
1683
1769
1847
1881
1862
1787
1682
1606
1583
1595
1617
1626
1601
1554
1509
1518
1618
1793
2014
2194
2304
2347
2359
2355
2367
2347
2266
2103
1875
1635
1393
1186
1059
1014
1076
1171
1238
1233
1155
1042
957
947
1042
1170
1283
1333
1324
1266
1210
1182
1230
1327
1407
1419
1376
1292
1187
1133
1155
1246
1354
1409
1402
1337
1250
1191
1195
1265
1357
1406
1391
1331
1251
1173
1163
1227
1327
1413
1443
1406
1304
1194
1127
1137
1226
1339
1393
1389
1338
1234
1169
1173
1264
1378
1451
1441
1374
1269
1200
1182
1243
1356
1466
1503
1479
1408
1330
1291
1329
1433
1535
1617
1614
1552
1470
1414
1421
1495
1613
1697
1729
1712
1633
1575
1565
1622
1727
1814
1847
1819
1739
1648
1589
1597
1666
1747
1790
1776
1708
1627
1579
1588
1665
1763
1824
1815
1747
1650
1561
1514
1535
1616
1677
1695
1653
1574
1488
1445
1461
1535
1613
1647
1616
1530
1433
1360
1357
1419
1502
1553
1535
1472
1391
1316
1293
1344
1441
1533
1573
1535
1446
1345
1305
1351
1452
1571
1620
1611
1535
1446
1383
1387
1462
1567
1628
1639
1587
1491
1422
1397
1443
1535
1644
1697
1680
1581
1483
1435
1457
1559
1662
1718
1713
1659
1587
1535
1535
1607
1703
1769
1772
1715
1619
1535
1518
1573
1675
1759
1795
1767
1687
1613
1566
1590
1682
1789
1847
1842
1767
1688
1634
1634
1711
1820
1898
1901
1835
1743
1657
1634
1694
1813
1877
1901
1857
1775
1703
1680
1718
1814
1915
1968
1959
1905
1835
1783
1790
1859
1950
2000
1990
1905
1831
1773
1759
1831
1949
2043
2069
2022
1930
1840
1793
1818
1913
2011
2077
2081
2019
1941
1892
1889
1963
2063
2118
2127
2081
2000
1935
1917
1968
2059
2128
2150
2119
2010
1937
1913
1955
2064
2157
2192
2161
2082
1984
1920
1917
1979
2085
2139
2143
2086
1984
1909
1901
1967
2062
2143
2167
2136
2064
1987
1963
1987
2069
2159
2191
2161
2095
1995
1933
1932
2006
2111
2174
2163
2101
2014
1952
1945
2007
2114
2208
2237
2202
2109
1991
1920
1921
2000
2075
2123
2128
2096
2080
2128
2259
2459
2670
2831
2917
2928
2851
2703
2496
2294
2149
2043
1937
1830
1716
1643
1630
1685
1804
1893
1931
1901
1814
1737
1712
1756
1883
1999
2087
2097
2046
1971
1917
1921
1995
2115
2215
2257
2235
2160
2064
2014
2031
2109
2192
2242
2226
2154
2061
2007
2027
2123
2230
2304
2303
2240
2147
2074
2067
2127
2214
2271
2274
2224
2146
2067
2030
2067
2154
2239
2263
2224
2144
2064
2028
2064
2163
2275
2340
2343
2291
2207
2154
2146
2203
2303
2383
2406
2373
2303
2231
2210
2250
2326
2405
2431
2410
2338
2265
2234
2269
2366
2467
2519
2505
2432
2337
2258
2250
2309
2411
2487
2512
2470
2384
2288
2253
2275
2351
2423
2446
2415
2346
2271
2235
2250
2323
2398
2419
2380
2288
2179
2100
2087
2137
2224
2282
2283
2224
2134
2047
2013
2039
2134
2214
2233
2187
2082
1984
1927
1943
2018
2115
2181
2183
2123
2032
1968
1954
2007
2108
2176
2187
2128
2021
1922
1891
1934
2036
2142
2185
2160
2078
1984
1935
1950
2046
2160
2229
2220
2151
2055
1981
1959
2013
2103
2169
2175
2127
2043
1983
1970
2018
2112
2192
2207
2161
2071
1973
1924
1939
2032
2138
2192
2189
2112
2012
1943
1943
2018
2128
2205
2221
2173
2079
1978
1926
1962
2043
2121
2145
2112
2025
1930
1885
1914
2019
2112
2173
2171
2110
2015
1954
1940
2000
2098
2174
2175
2125
2032
1962
1947
2001
2111
2192
2215
2170
2095
2001
1961
1978
2071
2176
2235
2229
2167
2091
2033
2043
2129
2224
2288
2286
2224
2126
2033
1993
2019
2101
2178
2201
2170
2097
2002
1968
1994
2078
2171
2213
2204
2142
2061
1997
1979
2029
2115
2164
2164
2114
2037
1970
1967
2013
2112
2185
2196
2162
2089
2005
1969
1994
2081
2167
2207
2192
2118
2027
1963
1948
2001
2083
2127
2115
2061
1978
1931
1964
2096
2290
2482
2624
2692
2705
2707
2726
2751
2751
2684
2516
2311
2079
1873
1753
1739
1798
1892
1963
1966
1903
1808
1736
1723
1791
1906
2013
2068
2064
2014
1959
1939
1967
2085
2181
2228
2208
2145
2061
1997
1995
2075
2183
2253
2256
2201
2107
2034
2022
2074
2160
2225
2240
2193
2106
2004
1968
1999
2090
2213
2266
2258
2198
2125
2079
2096
2180
2282
2332
2327
2269
2175
2093
2073
2126
2224
2305
2326
2288
2205
2116
2076
2105
2207
2315
2368
2363
2304
2222
2161
2171
2254
2365
2440
2450
2409
2317
2242
2223
2278
2377
2457
2490
2467
2392
2319
2287
2305
2386
2477
2502
2471
2391
2299
2241
2247
2326
2429
2481
2473
2399
2304
2218
2179
2205
2277
2335
2350
2304
2215
2125
2071
2082
2154
2234
2260
2234
2151
2059
1989
1993
2069
2166
2214
2195
2121
2006
1925
1903
1956
2055
2131
2152
2111
2023
1934
1890
1911
2004
2111
2159
2146
2076
1985
1935
1936
2011
2111
2162
2155
2093
1995
1914
1898
1943
2033
2126
2147
2112
2022
1941
1920
1954
2043
2133
2170
2139
2063
1978
1923
1935
2006
2109
2167
2170
2112
2018
1935
1909
1959
2038
2114
2128
2083
1993
1915
1886
1925
2018
2113
2149
2128
2058
1965
1906
1922
2011
2114
2172
2166
2096
1997
1918
1905
1971
2087
2171
2187
2139
2026
1952
1915
1945
2053
2145
2185
2171
2107
2027
1989
2021
2115
2211
2267
2260
2193
2090
1999
1968
2015
2108
2158
2150
2094
1997
1909
1871
1904
1995
2087
2113
2085
2002
1921
1885
1902
1994
2100
2160
2147
2078
1974
1895
1871
1920
2021
2109
2134
2105
2015
1934
1895
1935
2042
2134
2172
2142
2062
1943
1894
1903
1983
2071
2096
2046
1945
1823
1738
1731
1825
1981
2137
2250
2303
2319
2337
2406
2557
2768
2959
3027
2938
2689
2371
2103
1926
1879
1903
1906
1879
1814
1727
1664
1655
1712
1807
1886
1907
1872
1809
1763
1776
1863
1997
2128
2187
2178
2112
2007
1953
1955
2037
2128
2181
2177
2112
2016
1947
1938
2010
2117
2207
2235
2192
2098
1990
1948
1979
2077
2167
2215
2204
2137
2046
1995
2018
2103
2204
2249
2233
2161
2066
1983
1982
2059
2167
2252
2272
2224
2144
2069
2057
2109
2221
2322
2366
2345
2266
2171
2112
2130
2224
2325
2383
2381
2307
2224
2158
2155
2229
2342
2430
2452
2416
2331
2259
2245
2302
2401
2496
2526
2496
2416
2319
2256
2267
2352
2457
2515
2507
2431
2320
2229
2208
2273
2375
2439
2441
2374
2263
2169
2128
2140
2214
2271
2287
2246
2148
2042
1975
1984
2062
2152
2205
2194
2129
2023
1943
1923
1982
2078
2147
2163
2119
2032
1967
1947
1987
2066
2147
2164
2123
2037
1958
1915
1933
2015
2113
2160
2135
2061
1956
1885
1890
1947
2047
2119
2129
2077
1977
1892
1855
1901
2001
2109
2147
2126
2055
1966
1917
1934
2014
2112
2158
2141
2071
1963
1884
1881
1961
2064
2134
2148
2099
2003
1920
1898
1943
2047
2134
2167
2138
2062
1969
1927
1942
2025
2111
2151
2133
2063
1963
1889
1887
1957
2075
2159
2177
2138
2063
1984
1950
1984
2075
2157
2183
2147
2070
1979
1933
1936
2036
2137
2183
2173
2111
2016
1958
1968
2053
2167
2249
2267
2227
2134
2047
2014
2059
2145
2221
2245
2209
2126
2033
1984
1997
2074
2161
2203
2183
2110
2007
1938
1937
2009
2112
2167
2160
2102
2002
1925
1904
1957
2055
2135
2160
2128
2039
1952
1911
1938
2028
2130
2190
2176
2100
1995
1923
1934
2017
2134
2205
2215
2160
2063
1968
1907
1931
1995
2039
2031
1999
1939
1902
1936
2064
2266
2491
2673
2798
2854
2881
2897
2903
2881
2788
2613
2382
2126
1879
1701
1625
1659
1750
1849
1870
1825
1731
1647
1617
1680
1817
1963
2060
2082
2035
1973
1921
1936
2019
2126
2192
2186
2122
2018
1943
1926
1987
2097
2181
2219
2186
2094
1994
1949
1995
2101
2220
2271
2249
2161
2047
1978
1979
2062
2161
2229
2239
2201
2114
2039
2023
2083
2187
2263
2288
2247
2167
2079
2038
2080
2170
2257
2296
2277
2206
2127
2079
2096
2177
2285
2357
2368
2326
2252
2183
2176
2239
2345
2433
2464
2430
2352
2259
2223
2255
2342
2434
2478
2462
2403
2323
2279
2288
2371
2455
2512
2510
2459
2366
2288
2262
2307
2386
2448
2450
2401
2298
2199
2154
2176
2260
2351
2384
2358
2278
2174
2095
2093
2135
2222
2256
2236
2160
2058
1965
1945
1993
2112
2173
2167
2096
1981
1877
1845
1883
1975
2072
2121
2111
2035
1951
1885
1874
1936
2019
2064
2039
1965
1865
1789
1791
1862
1975
2055
2079
2042
1962
1875
1841
1872
1958
2039
2091
2070
1985
1889
1822
1821
1897
1989
2045
2035
1988
1875
1811
1803
1870
1966
2037
2054
2010
1936
1856
1830
1869
1963
2035
2065
2033
1952
1856
1803
1825
1909
2015
2082
2067
2003
1909
1839
1819
1872
1962
2032
2039
1997
1904
1809
1771
1808
1914
2011
2063
2045
1979
1887
1825
1825
1883
1995
2054
2046
1985
1899
1827
1813
1866
1942
2006
2023
1994
1935
1875
1856
1909
2014
2124
2165
2138
2054
1951
1892
1884
1965
2045
2087
2066
1984
1894
1821
1807
1878
1968
2034
2055
2010
1922
1838
1793
1839
1915
2000
2029
1999
1920
1831
1775
1789
1847
1936
1984
1971
1915
1827
1765
1767
1831
1925
1994
2009
1971
1892
1808
1774
1814
1903
1979
2001
1961
1865
1744
1659
1634
1691
1776
1835
1853
1840
1825
1872
2001
2213
2436
2614
2715
2737
2662
2503
2304
2106
1967
1835
1721
1600
1478
1380
1339
1362
1469
1587
1646
1623
1535
1461
1415
1446
1566
1701
1810
1855
1840
1782
1730
1728
1791
1894
1990
2032
2007
1927
1822
1760
1775
1847
1939
2001
1977
1919
1840
1783
1790
1856
1951
2012
2029
1977
1904
1811
1778
1807
1890
1968
2000
1978
1909
1830
1791
1818
1904
2001
2047
2027
1959
1868
1806
1805
1887
1995
2081
2096
2055
1973
1903
1903
1952
2038
2127
2163
2146
2077
1990
1943
1970
2063
2160
2204
2195
2129
2047
1997
2013
2102
2206
2281
2291
2243
2149
2060
2021
2058
2142
2224
2256
2223
2142
2055
2002
2032
2128
2238
2291
2272
2192
2084
2001
1983
2026
2123
2151
2118
2039
1931
1840
1807
1845
1935
2006
2035
1993
1894
1792
1741
1751
1829
1904
1939
1930
1859
1771
1710
1703
1777
1869
1926
1929
1869
1775
1689
1670
1725
1808
1877
1898
1856
1777
1689
1649
1687
1791
1899
1950
1938
1868
1759
1684
1671
1746
1833
1893
1906
1867
1786
1712
1693
1745
1846
1931
1965
1930
1840
1744
1685
1703
1780
1872
1906
1872
1808
1710
1646
1649
1728
1840
1922
1933
1875
1792
1724
1710
1761
1853
1922
1931
1878
1790
1693
1658
1695
1798
1906
1970
1958
1885
1776
1701
1682
1747
1853
1922
1951
1922
1853
1792
1782
1840
1949
2017
2033
1985
1893
1799
1745
1773
1854
1939
1983
1969
1895
1792
1732
1739
1801
1904
1963
1953
1888
1792
1715
1694
1739
1835
1911
1930
1898
1810
1728
1689
1721
1814
1915
1968
1955
1873
1777
1712
1717
1789
1869
1918
1917
1871
1792
1734
1737
1805
1903
1975
1987
1936
1855
1751
1698
1709
1774
1827
1840
1819
1774
1740
1769
1891
2094
2303
2453
2550
2559
2523
2448
2365
2258
2138
1999
1838
1677
1506
1391
1355
1409
1522
1636
1675
1648
1569
1474
1435
1483
1610
1759
1866
1903
1875
1801
1730
1730
1808
1920
2006
2027
1986
1909
1831
1808
1857
1963
2064
2101
2069
1973
1867
1808
1811
1896
1993
2064
2064
1999
1911
1842
1830
1892
1994
2081
2102
2070
1977
1898
1872
1925
2019
2124
2172
2154
2089
1991
1936
1942
2018
2114
2166
2160
2097
2010
1947
1949
2033
2163
2256
2268
2222
2129
2046
2023
2082
2189
2275
2315
2293
2223
2142
2096
2105
2179
2278
2333
2334
2277
2194
2134
2132
2208
2319
2395
2418
2382
2299
2207
2167
2195
2275
2345
2367
2324
2240
2137
2082
2096
2167
2254
2299
2288
2213
2105
2002
1975
2010
2096
2157
2169
2122
2036
1951
1910
1943
2037
2120
2143
2112
2041
1951
1904
1910
1981
2064
2112
2098
2031
1934
1871
1873
1942
2047
2127
2139
2095
1997
1915
1882
1920
2007
2096
2132
2107
2021
1923
1862
1859
1936
2034
2110
2116
2067
1991
1931
1929
1997
2089
2151
2157
2101
2001
1917
1883
1922
2003
2101
2127
2094
2008
1920
1880
1898
1973
2068
2119
2110
2034
1934
1857
1879
1963
2065
2143
2149
2093
1989
1907
1873
1920
2009
2108
2139
2114
2032
1949
1899
1911
1985
2086
2143
2149
2091
2001
1943
1948
2032
2155
2241
2250
2191
2090
1990
1953
1991
2093
2164
2183
2141
2039
1936
1876
1891
1970
2065
2127
2114
2043
1943
1869
1851
1920
2019
2096
2115
2080
2001
1945
1939
1999
2107
2192
2221
2178
2095
1999
1955
1984
2077
2163
2202
2176
2110
2015
1947
1941
1989
2106
2175
2188
2141
2029
1925
1882
1909
1991
2079
2139
2159
2145
2139
2197
2320
2509
2721
2882
2967
2945
2815
2623
2427
2292
2219
2143
2071
1966
1852
1759
1729
1782
1872
1945
1957
1905
1821
1738
1716
1764
1906
2041
2127
2139
2078
1987
1946
1963
2031
2121
2183
2196
2155
2078
2010
2000
2066
2157
2224
2231
2186
2097
2013
1984
2017
2106
2204
2239
2206
2121
2015
1947
1948
2026
2130
2207
2224
2178
2098
2027
2007
2070
2172
2256
2274
2231
2155
2083
2045
2082
2176
2263
2304
2275
2211
2126
2070
2083
2169
2277
2352
2363
2316
2229
2160
2150
2209
2314
2397
2420
2384
2295
2193
2150
2187
2288
2386
2442
2448
2400
2325
2275
2276
2335
2409
2448
2427
2352
2250
2167
2157
2224
2331
2417
2448
2411
2314
2209
2157
2157
2210
2276
2304
2277
2197
2097
2013
2000
2057
2121
2159
2148
2085
1986
1914
1902
1958
2055
2128
2140
2087
1989
1904
1861
1883
1962
2039
2076
2044
1970
1875
1827
1839
1918
2009
2067
2060
1994
1892
1835
1829
1891
1985
2069
2097
2067
1984
1902
1873
1902
1981
2063
2081
2041
1963
1869
1817
1834
1904
2003
2074
2077
2015
1933
1867
1861
1920
2007
2081
2089
2029
1920
1826
1797
1840
1954
2059
2106
2085
2001
1909
1854
1858
1933
2034
2111
2112
2061
1954
1876
1853
1904
2000
2083
2112
2081
2007
1933
1904
1941
2032
2128
2170
2162
2112
2029
1971
1978
2037
2131
2192
2189
2128
2015
1934
1901
1936
2014
2074
2086
2037
1954
1876
1847
1878
1961
2045
2085
2064
1989
1906
1856
1867
1950
2047
2110
2102
2031
1919
1846
1843
1907
2000
2073
2091
2038
1956
1872
1836
1856
1974
2071
2114
2092
2017
1933
1878
1878
1936
2001
2026
1994
1914
1814
1767
1803
1933
2130
2320
2461
2541
2559
2608
2678
2768
2832
2783
2608
2360
2099
1861
1712
1682
1737
1830
1892
1893
1831
1731
1659
1649
1725
1845
1936
1974
1951
1891
1837
1823
1890
2013
2128
2182
2174
2115
2003
1954
1968
2047
2150
2203
2206
2143
2023
1929
1906
1965
2058
2129
2146
2102
2013
1933
1904
1947
2055
2159
2192
2158
2068
1969
1916
1936
2016
2121
2175
2174
2127
2038
1973
1971
2033
2128
2192
2202
2160
2082
2003
1986
2039
2145
2231
2267
2242
2164
2078
2026
2045
2141
2243
2307
2311
2258
2188
2130
2128
2201
2306
2384
2399
2358
2279
2199
2181
2229
2333
2418
2448
2416
2320
2219
2158
2160
2240
2335
2384
2370
2300
2199
2123
2098
2148
2233
2297
2307
2250
2145
2041
1987
2002
2075
2128
2131
2090
2001
1919
1857
1867
1937
2023
2085
2084
2023
1936
1867
1851
1879
1957
2000
1995
1936
1853
1774
1747
1791
1893
1995
2046
2040
1979
1903
1857
1883
1963
2035
2067
2030
1939
1834
1766
1757
1840
1946
2029
2043
1997
1918
1855
1830
1867
1952
2042
2098
2082
2013
1941
1921
1965
2062
2137
2167
2127
2032
1916
1839
1840
1922
2042
2143
2165
2119
2031
1954
1929
1971
2066
2133
2141
2091
2000
1925
1904
1945
2057
2159
2207
2192
2124
2023
1942
1911
1957
2034
2099
2123
2102
2019
1967
1951
1994
2084
2163
2191
2149
2060
1965
1906
1919
1995
2095
2146
2151
2101
2029
1986
2007
2098
2193
2255
2253
2192
2105
2026
1999
2030
2112
2176
2183
2122
2032
1934
1874
1887
1956
2042
2093
2086
2018
1935
1872
1881
1947
2035
2102
2100
2036
1942
1869
1851
1904
2000
2091
2127
2099
2013
1922
1872
1885
1971
2071
2119
2105
2032
1937
1872
1871
1934
2025
2089
2083
2001
1883
1776
1733
1779
1885
1998
2076
2106
2115
2132
2216
2358
2559
2783
2943
2982
2874
2651
2375
2145
1997
1920
1872
1820
1743
1643
1572
1562
1615
1698
1772
1808
1792
1741
1693
1696
1769
1873
1987
2054
2061
2000
1920
1873
1880
1952
2047
2107
2107
2035
1962
1891
1870
1914
2011
2101
2133
2109
2027
1954
1927
1968
2065
2169
2211
2188
2109
2000
1936
1939
2018
2119
2169
2165
2112
2042
1987
1983
2055
2158
2229
2244
2202
2129
2043
1998
2017
2111
2195
2238
2230
2178
2117
2090
2118
2210
2307
2368
2372
2309
2217
2151
2151
2224
2335
2421
2461
2433
2352
2274
2245
2290
2389
2479
2512
2480
2394
2298
2230
2243
2313
2414
2466
2455
2394
2302
2220
2190
2226
2320
2387
2410
2369
2284
2187
2142
2158
2224
2298
2311
2271
2178
2073
1999
1985
2037
2119
2175
2170
2099
1995
1918
1901
1949
2030
2096
2099
2043
1954
1871
1840
1881
1982
2085
2123
2099
2013
1915
1857
1862
1936
2020
2067
2062
1985
1919
1844
1826
1879
1974
2047
2070
2019
1930
1857
1830
1872
1975
2066
2096
2075
1995
1904
1850
1858
1935
2029
2093
2078
2017
1934
1861
1851
1905
1998
2077
2096
2053
1966
1879
1844
1881
1963
2038
2065
2023
1957
1897
1872
1899
1973
2070
2127
2107
2031
1920
1841
1828
1889
1984
2064
2086
2037
1966
1872
1834
1862
1946
2033
2069
2047
1979
1887
1840
1855
1936
2035
2105
2107
2034
1946
1885
1877
1938
2034
2112
2112
2063
1963
1872
1835
1856
1967
2075
2121
2102
2029
1935
1882
1899
1987
2103
2173
2176
2127
2044
1981
1963
2007
2095
2134
2119
2055
1950
1847
1803
1840
1935
2032
2095
2081
2000
1917
1862
1874
1957
2039
2085
2064
1986
1887
1823
1812
1872
1962
2047
2080
2047
1974
1905
1879
1918
2005
2087
2112
2077
1987
1887
1830
1842
1926
2027
2090
2066
1971
1843
1746
1718
1764
1882
1995
2087
2142
2183
2235
2326
2477
2674
2837
2896
2807
2559
2243
1953
1769
1686
1685
1707
1693
1647
1579
1520
1513
1578
1651
1715
1723
1686
1631
1591
1609
1710
1858
2003
2081
2080
2005
1919
1883
1902
1984
2074
2127
2113
2037
1953
1891
1890
1950
2047
2112
2111
2064
1975
1895
1871
1919
2015
2109
2147
2125
2042
1956
1907
1921
1998
2096
2150
2145
2087
1997
1947
1953
2021
2123
2173
2174
2123
2034
1959
1946
2006
2119
2192
2224
2198
2135
2063
2021
2063
2154
2250
2302
2291
2223
2130
2081
2107
2193
2305
2383
2388
2333
2243
2165
2139
2170
2255
2330
2361
2327
2262
2184
2155
2177
2256
2331
2362
2331
2256
2161
2102
2113
2192
2301
2361
2352
2278
2161
2059
2003
2034
2121
2185
2190
2137
2047
1961
1913
1924
2000
2093
2126
2099
2011
1914
1850
1847
1915
2001
2056
2041
1981
1889
1827
1817
1870
1964
2035
2043
1991
1901
1808
1774
1805
1892
1991
2031
1993
1919
1822
1770
1782
1876
1996
2075
2081
2014
1915
1834
1807
1856
1951
2033
2064
2027
1951
1876
1845
1882
1969
2057
2080
2039
1934
1840
1780
1782
1870
1983
2056
2062
1993
1901
1815
1803
1863
1958
2057
2067
2025
1945
1851
1806
1834
1915
2007
2060
2033
1957
1866
1808
1819
1889
1983
2045
2043
1972
1869
1791
1770
1825
1931
2030
2063
2021
1934
1857
1818
1851
1950
2047
2099
2074
1997
1908
1851
1853
1921
2015
2081
2071
2005
1923
1860
1852
1919
2015
2094
2109
2078
2007
1961
1945
1984
2079
2155
2171
2128
2032
1932
1867
1872
1951
2045
2103
2097
2032
1929
1845
1829
1879
1977
2059
2078
2032
1947
1867
1833
1850
1959
2058
2108
2079
1994
1904
1843
1856
1934
2026
2075
2067
2005
1927
1857
1856
1920
2019
2107
2128
2085
1995
1907
1856
1861
1925
1977
1995
1955
1887
1835
1840
1927
2110
2314
2475
2559
2607
2589
2559
2550
2522
2455
2339
2167
1970
1774
1634
1579
1597
1673
1755
1791
1770
1707
1622
1584
1615
1725
1858
1954
1995
1978
1917
1859
1851
1906
1994
2071
2087
2043
1968
1889
1872
1922
2031
2135
2173
2128
2031
1927
1872
1903
2005
2125
2177
2161
2096
2000
1936
1935
2001
2110
2181
2195
2150
2083
1997
1967
2001
2099
2198
2234
2205
2126
2032
1989
2002
2094
2185
2241
2240
2183
2101
2032
2019
2082
2180
2256
2272
2227
2147
2075
2062
2113
2223
2322
2363
2342
2271
2195
2156
2177
2262
2359
2418
2416
2354
2266
2194
2192
2256
2359
2432
2446
2397
2301
2200
2154
2176
2262
2342
2365
2323
2245
2155
2097
2099
2163
2244
2301
2291
2229
2131
2039
2010
2055
2138
2193
2189
2131
2039
1962
1926
1959
2038
2116
2143
2106
2015
1919
1861
1865
1934
2014
2065
2060
1993
1905
1840
1838
1895
1991
2061
2065
2011
1920
1841
1807
1840
1934
2023
2069
2054
1979
1910
1874
1895
1968
2058
2096
2082
2006
1909
1839
1833
1895
2006
2086
2107
2064
1968
1890
1854
1898
2006
2112
2146
2112
1998
1899
1846
1858
1936
2029
2082
2070
1998
1905
1828
1818
1885
1986
2068
2096
2058
1975
1907
1887
1919
2007
2103
2129
2098
2011
1915
1866
1886
1978
2079
2129
2123
2057
1971
1911
1904
1973
2078
2151
2161
2107
2013
1938
1918
1968
2062
2151
2183
2161
2101
2027
1978
2000
2082
2167
2202
2181
2113
2002
1936
1924
1995
2096
2163
2155
2096
1993
1905
1877
1926
2027
2112
2130
2107
2031
1943
1909
1932
2000
2086
2121
2114
2045
1965
1904
1895
1953
2039
2111
2113
2059
1969
1893
1872
1920
2019
2112
2145
2119
2039
1954
1904
1906
1959
2035
2057
2000
1904
1796
1744
1775
1906
2095
2265
2383
2446
2469
2506
2582
2709
2833
2880
2769
2522
2224
1944
1759
1718
1754
1831
1872
1854
1777
1681
1616
1603
1664
1775
1855
1894
1891
1856
1827
1843
1907
2010
2099
2127
2096
2015
1931
1902
1931
2020
2125
2163
2140
2065
1975
1907
1904
1981
2085
2165
2170
2109
2010
1933
1900
1939
2032
2109
2128
2103
2035
1977
1949
1998
2097
2194
2240
2218
2142
2042
1977
1973
2037
2134
2192
2186
2122
2030
1962
1962
2033
2175
2261
2295
2256
2173
2090
2047
2075
2160
2244
2282
2265
2193
2117
2081
2102
2183
2294
2377
2399
2365
2291
2223
2198
2244
2341
2417
2430
2386
2305
2214
2165
2183
2265
2351
2384
2354
2275
2178
2114
2121
2195
2291
2348
2331
2257
2150
2039
1984
2000
2072
2139
2161
2128
2057
1977
1949
1983
2073
2150
2170
2127
2031
1930
1856
1851
1919
2000
2057
2047
1978
1907
1839
1821
1859
1936
2003
2022
1984
1909
1837
1808
1853
1943
2021
2055
2023
1940
1856
1802
1811
1893
1999
2064
2063
2000
1911
1839
1818
1868
1963
2034
2061
2012
1939
1862
1829
1854
1930
2009
2038
2003
1947
1868
1815
1837
1903
1995
2064
2047
1991
1920
1859
1853
1907
2012
2077
2070
2000
1904
1827
1793
1831
1925
2013
2062
2035
1968
1879
1823
1835
1894
1986
2045
2045
1986
1890
1815
1790
1851
1938
2015
2033
1997
1922
1842
1811
1856
1954
2059
2108
2091
2001
1903
1834
1839
1917
2014
2089
2087
2028
1936
1854
1818
1853
1925
2000
2027
2007
1957
1902
1895
1942
2037
2128
2157
2122
2045
1959
1919
1939
2031
2128
2174
2145
2064
1957
1871
1841
1887
1970
2036
2060
2025
1948
1878
1847
1873
1961
2038
2067
2032
1947
1855
1794
1807
1891
1989
2058
2054
1988
1900
1830
1814
1867
1962
2035
2054
2010
1930
1852
1826
1861
1954
2032
2064
2031
1965
1871
1797
1773
1829
1883
1935
1935
1909
1874
1893
1989
2165
2384
2559
2698
2757
2766
2725
2649
2546
2431
2298
2135
1953
1780
1635
1561
1571
1650
1750
1803
1792
1728
1635
1571
1579
1665
1809
1923
1982
1965
1900
1826
1804
1851
1951
2035
2071
2041
1968
1885
1841
1862
1953
2063
2113
2094
2014
1919
1856
1857
1932
2037
2123
2139
2093
2001
1923
1894
1927
2017
2109
2141
2115
2041
1962
1919
1941
2034
2149
2201
2192
2131
2033
1965
1957
2032
2135
2210
2233
2193
2112
2031
1997
2034
2131
2234
2288
2277
2220
2151
2112
2126
2198
2295
2353
2357
2302
2221
2154
2154
2226
2331
2406
2416
2369
2283
2206
2179
2233
2323
2410
2439
2410
2322
2225
2170
2183
2268
2366
2419
2405
2333
2239
2161
2144
2191
2270
2318
2304
2237
2138
2041
2019
2055
2128
2195
2198
2154
2062
1949
1886
1901
1983
2069
2128
2119
2045
1949
1857
1830
1875
1962
2023
2032
1990
1904
1823
1799
1845
1944
2028
2061
2027
1962
1872
1815
1824
1901
1986
2032
2015
1947
1856
1793
1791
1855
1952
2021
2026
1969
1885
1807
1777
1822
1918
1999
2030
1999
1922
1834
1786
1808
1885
1985
2059
2047
1975
1877
1808
1801
1863
1958
2018
2032
1978
1892
1820
1793
1843
1937
2013
2030
1982
1892
1808
1773
1793
1899
2000
2059
2039
1962
1869
1805
1795
1862
1967
2032
2035
1983
1912
1834
1801
1845
1942
2026
2052
2023
1958
1879
1830
1843
1919
1998
2033
2015
1938
1850
1797
1801
1881
1968
2018
2002
1945
1861
1794
1785
1847
1959
2064
2099
2066
1980
1887
1834
1855
1940
2032
2079
2061
1993
1907
1843
1843
1901
1978
2029
2041
1991
1904
1831
1819
1872
1959
2026
2035
1991
1921
1861
1842
1875
1973
2070
2103
2077
1994
1911
1867
1893
1984
2102
2174
2180
2137
2056
1967
1934
1968
2052
2126
2154
2121
2042
1943
1882
1884
1947
2017
2046
2034
1979
1881
1811
1807
1875
1984
2066
2077
2027
1938
1859
1840
1890
1983
2059
2077
2032
1954
1879
1849
1904
1975
2071
2110
2079
1997
1898
1838
1846
1921
2015
2082
2085
2017
1935
1851
1799
1817
1879
1931
1950
1933
1895
1877
1936
2080
2282
2486
2640
2719
2735
2687
2594
2480
2368
2246
2115
1966
1799
1647
1526
1488
1535
1655
1750
1786
1747
1651
1557
1525
1593
1727
1869
1964
1983
1935
1871
1819
1831
1909
2015
2080
2071
2001
1909
1850
1853
1919
2033
2122
2140
2083
2001
1914
1872
1902
1987
2079
2122
2102
2032
1961
1911
1915
1997
2104
2175
2178
2112
2011
1935
1919
1984
2096
2181
2202
2150
2063
1969
1932
1962
2064
2179
2234
2221
2155
2071
2019
2038
2121
2224
2291
2291
2244
2165
2096
2085
2145
2254
2339
2367
2334
2257
2173
2128
2154
2247
2348
2394
2385
2320
2229
2171
2176
2259
2354
2402
2387
2327
2243
2177
2161
2223
2314
2378
2385
2341
2250
2158
2111
2129
2207
2293
2310
2269
2181
2082
2016
2020
2091
2169
2208
2191
2113
2005
1926
1913
1968
2064
2133
2143
2085
1979
1873
1831
1863
1958
2053
2094
2070
1983
1890
1840
1850
1930
2029
2085
2067
1998
1899
1810
1789
1847
1951
2038
2076
2059
1984
1908
1878
1903
1972
2039
2073
2061
1996
1920
1875
1887
1962
2059
2116
2111
2046
1953
1875
1857
1904
1995
2079
2103
2057
1965
1863
1827
1869
1969
2072
2111
2081
1994
1905
1850
1863
1959
2074
2135
2128
2068
1969
1886
1860
1917
2018
2094
2099
2057
1970
1902
1879
1913
1987
2065
2095
2069
1985
1893
1841
1854
1930
2032
2101
2101
2031
1931
1850
1840
1904
2013
2106
2125
2086
1997
1909
1876
1908
1982
2085
2114
2090
2000
1904
1844
1849
1933
2032
2096
2083
2018
1940
1877
1881
1962
2091
2188
2218
2176
2098
2007
1979
2028
2106
2186
2210
2175
2089
1979
1920
1935
2013
2112
2157
2138
2063
1961
1889
1874
1927
2010
2063
2059
1997
1915
1809
1767
1806
1899
1989
2025
2000
1929
1845
1795
1815
1905
2005
2074
2075
2014
1920
1855
1845
1909
2018
2087
2099
2062
1978
1903
1867
1887
1951
2000
1994
1942
1854
1771
1747
1823
1974
2167
2323
2423
2449
2443
2442
2489
2559
2638
2597
2439
2215
1954
1732
1606
1596
1663
1744
1776
1762
1702
1628
1584
1591
1679
1778
1859
1887
1872
1831
1803
1823
1905
2010
2096
2115
2084
2011
1936
1913
1959
2059
2142
2171
2133
2053
1955
1907
1931
2001
2099
2151
2150
2092
1995
1922
1908
1968
2057
2128
2156
2127
2054
1971
1938
1972
2064
2133
2159
2121
2047
1957
1919
1951
2052
2160
2210
2193
2129
2046
1991
2000
2081
2177
2243
2247
2198
2115
2038
2031
2089
2183
2269
2305
2292
2224
2141
2102
2124
2211
2310
2366
2359
2301
2211
2145
2135
2197
2288
2349
2362
2320
2241
2166
2143
2192
2291
2383
2413
2373
2290
2191
2133
2144
2224
2297
2345
2314
2233
2127
2036
2022
2098
2193
2251
2243
2178
2078
1983
1954
1981
2046
2100
2107
2058
1954
1862
1819
1844
1936
2032
2091
2083
2017
1931
1872
1873
1946
2035
2098
2093
2027
1943
1849
1819
1862
1969
2062
2106
2080
1998
1904
1847
1855
1923
2011
2064
2055
1996
1921
1871
1875
1941
2037
2098
2096
2035
1951
1871
1840
1872
1963
2062
2103
2087
2009
1919
1861
1871
1940
2027
2075
2066
2007
1931
1873
1872
1938
2030
2090
2078
2007
1915
1828
1802
1856
1955
2041
2067
2029
1955
1881
1842
1863
1941
2031
2077
2064
1999
1906
1847
1845
1899
2014
2088
2094
2038
1951
1884
1856
1899
1988
2064
2079
2033
1938
1850
1801
1840
1957
2086
2154
2160
2103
2020
1968
1970
2033
2126
2176
2164
2101
2000
1910
1873
1910
1987
2061
2064
2013
1931
1840
1797
1813
1911
2021
2091
2091
2045
1936
1871
1855
1911
1986
2037
2055
2009
1935
1872
1859
1914
2004
2083
2096
2053
1971
1887
1855
1883
1971
2069
2112
2091
2003
1917
1857
1879
1968
2071
2115
2081
1968
1835
1724
1691
1755
1882
2017
2128
2196
2236
2269
2341
2468
2640
2802
2868
2800
2597
2321
2074
1904
1842
1856
1875
1859
1792
1708
1634
1616
1664
1744
1837
1875
1875
1840
1793
1783
1823
1938
2043
2095
2070
1990
1905
1855
1865
1942
2047
2128
2146
2098
2009
1936
1921
1973
2066
2144
2164
2127
2039
1945
1908
1939
2035
2133
2187
2182
2128
2044
1984
1985
2054
2133
2192
2177
2114
2022
1955
1953
2027
2144
2235
2262
2224
2146
2064
2017
2059
2145
2233
2268
2250
2177
2103
2055
2077
2171
2288
2362
2368
2320
2235
2170
2160
2224
2321
2403
2425
2384
2295
2211
2174
2195
2288
2389
2455
2461
2414
2334
2271
2272
2331
2415
2460
2450
2388
2303
2225
2210
2255
2334
2387
2386
2334
2243
2155
2117
2149
2230
2303
2320
2277
2171
2071
1997
1991
2061
2129
2171
2155
2083
1987
1923
1911
1968
2070
2147
2160
2112
2024
1951
1915
1935
2002
2073
2091
2038
1974
1893
1858
1893
1984
2096
2160
2153
2080
1982
1889
1849
1890
1989
2075
2107
2079
1995
1915
1872
1914
2019
2128
2169
2151
2073
1967
1904
1916
1985
2087
2128
2124
2055
1968
1890
1877
1945
2057
2138
2156
2117
2032
1953
1913
1968
2047
2129
2160
2137
2073
1979
1921
1922
1998
2093
2147
2151
2098
2001
1927
1920
1973
2065
2131
2145
2103
2011
1924
1898
1946
2043
2135
2162
2128
2045
1966
1923
1941
2023
2122
2177
2173
2114
2015
1935
1925
1978
2071
2145
2174
2155
2087
2015
1995
2043
2135
2234
2286
2272
2197
2109
2045
2059
2128
2221
2265
2256
2179
2074
1988
1965
2012
2096
2160
2174
2129
2035
1946
1917
1954
2046
2130
2163
2135
2058
1959
1902
1915
2000
2109
2166
2160
2096
1990
1923
1915
1975
2067
2138
2157
2119
2043
1968
1953
1994
2091
2160
2185
2151
2065
1968
1904
1905
1968
2033
2062
2015
1936
1860
1828
1890
2046
2251
2435
2559
2647
2691
2736
2817
2911
2960
2898
2701
2421
2137
1881
1719
1665
1708
1793
1844
1840
1774
1674
1603
1603
1691
1822
1926
1981
1984
1946
1901
1891
1936
2005
2089
2112
2080
2000
1923
1901
1931
2033
2128
2177
2162
2087
1984
1915
1915
1989
2106
2187
2203
2161
2075
1999
1973
2017
2111
2202
2237
2209
2133
2046
1999
2007
2096
2192
2238
2219
2139
2035
1973
1984
2075
2177
2251
2257
2207
2118
2034
2011
2064
2170
2273
2310
2294
2226
2143
2102
2129
2230
2337
2395
2395
2346
2258
2203
2205
2277
2379
2452
2465
2406
2313
2237
2214
2263
2368
2450
2478
2438
2353
2256
2205
2224
2307
2402
2448
2432
2353
2256
2180
2171
2230
2314
2378
2378
2304
2192
2079
2026
2043
2118
2187
2203
2173
2084
1982
1929
1937
2000
2078
2105
2079
1989
1882
1805
1799
1870
1965
2030
2031
1951
1875
1797
1774
1813
1902
1967
1985
1949
1863
1776
1739
1772
1871
1972
2029
2021
1951
1856
1787
1776
1836
1921
1982
1974
1905
1805
1723
1700
1754
1869
1934
1954
1905
1820
1733
1686
1713
1806
1903
1936
1919
1853
1758
1695
1681
1755
1851
1917
1921
1870
1777
1694
1666
1715
1818
1902
1937
1923
1840
1747
1697
1707
1781
1872
1905
1889
1818
1723
1651
1659
1749
1843
1909
1911
1846
1750
1669
1649
1700
1802
1886
1906
1865
1775
1682
1647
1671
1761
1850
1872
1843
1760
1686
1646
1655
1730
1823
1875
1872
1815
1725
1653
1642
1697
1790
1871
1885
1841
1746
1651
1603
1628
1713
1814
1886
1894
1850
1776
1727
1728
1799
1885
1936
1934
1871
1767
1679
1646
1680
1763
1841
1857
1828
1735
1656
1614
1633
1703
1776
1795
1758
1691
1601
1570
1593
1673
1776
1837
1838
1783
1685
1597
1561
1600
1667
1775
1793
1749
1668
1590
1566
1586
1671
1754
1786
1759
1683
1605
1553
1586
1664
1775
1840
1838
1755
1626
1504
1446
1471
1565
1654
1717
1728
1747
1761
1843
1989
2198
2403
2559
2646
2599
2432
2199
1958
1783
1673
1573
1462
1349
1232
1161
1179
1274
1395
1488
1505
1456
1386
1311
1307
1370
1495
1635
1714
1728
1683
1617
1588
1601
1673
1769
1828
1841
1781
1701
1634
1615
1665
1751
1832
1845
1802
1716
1634
1611
1659
1728
1810
1852
1831
1769
1683
1642
1648
1728
1829
1887
1887
1811
1744
1682
1679
1728
1825
1905
1927
1887
1807
1722
1690
1729
1826
1909
1945
1922
1859
1791
1755
1784
1869
1966
2025
2022
1964
1879
1829
1833
1903
2000
2077
2107
2077
1997
1919
1887
1930
2020
2112
2158
2145
2094
2009
1961
1968
2042
2138
2177
2169
2096
1989
1906
1895
1952
2057
2128
2138
2091
1994
1901
1856
1871
1947
2023
2045
2000
1911
1807
1743
1744
1820
1875
1917
1893
1812
1712
1627
1596
1635
1717
1790
1818
1787
1718
1623
1581
1600
1675
1745
1776
1750
1677
1587
1535
1565
1659
1763
1822
1826
1758
1661
1577
1535
1613
1721
1803
1818
1777
1699
1618
1591
1649
1736
1827
1856
1826
1741
1645
1584
1597
1675
1776
1839
1841
1776
1712
1649
1638
1691
1778
1838
1839
1791
1711
1637
1611
1653
1733
1808
1847
1815
1767
1698
1659
1669
1740
1818
1856
1833
1756
1665
1600
1596
1663
1754
1824
1834
1787
1709
1645
1625
1668
1750
1827
1847
1799
1737
1647
1599
1611
1700
1802
1871
1866
1811
1731
1678
1680
1722
1823
1894
1923
1899
1805
1713
1682
1728
1815
1889
1904
1866
1790
1719
1705
1754
1857
1959
2003
1999
1936
1857
1798
1793
1843
1930
1994
1999
1931
1835
1744
1715
1757
1843
1920
1936
1895
1807
1714
1675
1706
1795
1890
1939
1931
1873
1787
1728
1727
1792
1897
1966
1972
1920
1830
1762
1740
1779
1863
1954
1991
1970
1899
1811
1769
1783
1853
1942
1990
1968
1892
1787
1718
1707
1777
1859
1905
1898
1839
1756
1706
1728
1842
2031
2233
2383
2480
2524
2513
2544
2591
2608
2531
2352
2111
1839
1606
1462
1424
1482
1584
1658
1681
1645
1564
1483
1456
1506
1620
1735
1809
1831
1802
1757
1743
1771
1875
1981
2045
2053
1997
1923
1870
1872
1936
2032
2103
2109
2045
1957
1893
1886
1942
2027
2128
2147
2110
2021
1936
1891
1911
2003
2112
2170
2163
2102
2016
1953
1955
2032
2145
2218
2219
2160
2064
1974
1950
2000
2101
2174
2192
2160
2091
2028
2013
2055
2154
2256
2311
2297
2224
2128
2064
2062
2135
2247
2325
2352
2319
2245
2181
2166
2214
2313
2396
2417
2379
2302
2219
2182
2213
2310
2417
2477
2470
2399
2303
2227
2218
2270
2353
2407
2405
2346
2251
2168
2141
2187
2283
2356
2372
2319
2216
2109
2042
2064
2130
2221
2258
2231
2144
2032
1954
1936
2002
2119
2190
2194
2126
2015
1922
1886
1913
1985
2058
2073
2021
1955
1888
1869
1913
2009
2112
2155
2130
2061
1964
1894
1892
1961
2058
2125
2126
2065
1966
1881
1860
1905
2003
2103
2142
2113
2033
1968
1938
1974
2073
2175
2229
2227
2164
2068
1995
1982
2028
2113
2161
2158
2109
2019
1964
1952
2005
2099
2166
2185
2149
2075
1995
1970
2005
2096
2179
2213
2186
2106
2018
1959
1963
2029
2115
2173
2174
2128
2059
1999
1986
2047
2142
2217
2230
2176
2090
1997
1959
1983
2066
2144
2166
2143
2091
2016
1982
2000
2073
2167
2225
2224
2153
2063
1977
1963
2018
2127
2217
2246
2209
2119
2026
1984
2009
2106
2198
2254
2247
2190
2112
2064
2081
2160
2257
2304
2305
2256
2159
2085
2071
2125
2219
2290
2298
2246
2150
2059
2009
2031
2109
2175
2192
2154
2067
1978
1953
1984
2070
2185
2250
2248
2186
2091
2006
1982
2032
2128
2205
2224
2185
2097
2023
1986
2015
2106
2191
2224
2199
2123
2023
1967
1963
2038
2139
2195
2194
2135
2023
1920
1871
1898
1979
2064
2117
2147
2172
2219
2317
2475
2673
2863
2980
3008
2933
2752
2511
2298
2149
2062
1984
1914
1835
1742
1680
1679
1744
1829
1917
1926
1875
1791
1715
1710
1776
1904
2030
2108
2112
2053
1970
1923
1936
2013
2111
2165
2170
2121
2046
1983
1981
2035
2133
2206
2223
2188
2107
2020
1986
2017
2110
2192
2224
2192
2111
2015
1967
1991
2096
2195
2256
2247
2175
2075
2007
2005
2078
2169
2241
2247
2199
2121
2042
2023
2096
2192
2291
2340
2314
2240
2140
2077
2085
2160
2256
2320
2320
2269
2192
2135
2135
2208
2320
2405
2427
2398
2326
2251
2218
2240
2325
2418
2467
2457
2391
2318
2278
2301
2379
2467
2519
2509
2430
2320
2231
2208
2263
2352
2415
2418
2354
2269
2185
2145
2170
2244
2320
2341
2289
2191
2086
2026
2033
2113
2195
2240
2219
2134
2031
1951
1931
1982
2075
2148
2166
2107
2000
1908
1866
1901
1990
2091
2129
2112
2053
1971
1925
1937
2002
2089
2130
2118
2047
1961
1887
1872
1921
2000
2069
2087
2047
1983
1919
1899
1942
2031
2112
2131
2106
2027
1936
1888
1905
1982
2074
2118
2096
2023
1932
1863
1857
1917
2005
2083
2104
2064
1983
1903
1871
1915
2007
2096
2129
2105
2019
1931
1887
1900
1971
2067
2114
2106
2038
1951
1898
1901
1973
2065
2118
2114
2055
1959
1882
1862
1902
1983
2067
2098
2067
1985
1898
1846
1856
1939
2033
2092
2087
2021
1939
1888
1885
1937
2019
2083
2094
2045
1964
1879
1852
1892
1987
2072
2103
2086
2019
1947
1907
1923
2001
2097
2128
2107
2022
1929
1859
1858
1922
2017
2091
2111
2070
1991
1918
1899
1946
2046
2129
2160
2124
2043
1959
1914
1924
1995
2085
2128
2113
2064
1996
1951
1946
2011
2122
2177
2176
2119
2037
1968
1941
1982
2060
2146
2176
2159
2091
2000
1963
1995
2093
2186
2224
2201
2125
2027
1955
1943
1998
2096
2159
2171
2119
2019
1930
1893
1925
2015
2102
2138
2112
2032
1936
1882
1901
1983
2078
2113
2096
2018
1923
1858
1857
1930
2020
2087
2093
2036
1953
1897
1887
1941
2043
2128
2150
2112
2018
1915
1845
1838
1880
1952
1999
1997
1963
1916
1904
1973
2132
2332
2511
2637
2700
2736
2748
2759
2742
2674
2542
2352
2128
1901
1718
1628
1637
1724
1826
1872
1856
1778
1693
1638
1653
1745
1878
1987
2031
2000
1927
1863
1846
1898
1994
2086
2119
2092
2016
1939
1903
1919
1975
2075
2116
2106
2043
1966
1907
1908
1978
2085
2151
2158
2103
2005
1919
1904
1958
2064
2154
2183
2147
2060
1958
1907
1930
2011
2108
2155
2134
2080
2003
1970
1995
2084
2192
2261
2263
2204
2112
2032
2007
2064
2160
2236
2240
2187
2110
2032
2019
2073
2183
2303
2359
2353
2289
2205
2160
2160
2240
2339
2412
2416
2368
2279
2207
2181
2215
2293
2377
2414
2395
2343
2269
2227
2249
2327
2407
2448
2416
2345
2247
2179
2170
2223
2304
2352
2331
2261
2160
2079
2038
2075
2146
2209
2213
2167
2081
1995
1945
1964
2026
2107
2139
2112
2036
1956
1895
1886
1955
2026
2073
2062
1991
1898
1821
1792
1838
1935
2014
2032
2002
1942
1865
1840
1872
1958
2037
2079
2047
1974
1881
1823
1823
1899
1993
2043
2033
1984
1901
1837
1815
1866
1958
2033
2053
2001
1906
1812
1774
1826
1904
2010
2075
2059
1974
1883
1823
1835
1904
2006
2081
2091
2032
1926
1841
1808
1845
1934
2006
2032
1997
1927
1857
1831
1861
1938
2021
2063
2032
1955
1867
1811
1824
1891
1977
2032
2034
1984
1900
1834
1819
1872
1961
2030
2046
2009
1936
1862
1837
1855
1928
2005
2025
1985
1905
1813
1770
1790
1886
1991
2047
2046
1997
1910
1839
1808
1855
1946
2015
2021
1978
1897
1824
1794
1828
1927
2018
2058
2027
1947
1854
1803
1810
1888
1979
2032
2019
1949
1858
1785
1776
1842
1952
2035
2064
2024
1954
1863
1834
1861
1949
2032
2071
2043
1968
1881
1829
1839
1911
2000
2047
2032
1983
1904
1845
1841
1905
2000
2069
2077
2023
1936
1857
1822
1881
1953
2041
2083
2063
1983
1906
1855
1866
1937
2035
2093
2081
2002
1938
1879
1869
1930
2015
2083
2096
2043
1961
1872
1835
1861
1947
2018
2065
2043
1987
1906
1861
1883
1974
2074
2128
2112
2058
1958
1887
1877
1935
2021
2092
2093
2031
1931
1863
1844
1894
1993
2075
2099
2076
1987
1901
1843
1857
1942
2032
2096
2091
2030
1949
1893
1889
1935
2054
2122
2133
2096
2013
1935
1907
1941
2033
2124
2149
2112
2031
1952
1905
1919
1990
2077
2114
2103
2035
1943
1872
1872
1939
2044
2123
2135
2082
1976
1875
1845
1899
2007
2101
2127
2092
2003
1922
1873
1877
1969
2071
2125
2127
2067
1987
1936
1933
1985
2075
2135
2145
2099
2005
1921
1893
1934
2019
2096
2112
2071
1975
1893
1841
1862
1951
2064
2128
2126
2062
1964
1883
1861
1919
2017
2093
2106
2064
1983
1909
1877
1907
1995
2079
2113
2076
2002
1921
1878
1914
2012
2112
2159
2139
2070
1981
1913
1904
1962
2062
2128
2135
2094
1997
1919
1893
1938
2057
2143
2190
2176
2114
2033
1988
2002
2085
2162
2202
2175
2107
2018
1971
1968
2023
2109
2160
2157
2095
2001
1922
1889
1906
2011
2092
2114
2079
1987
1895
1851
1867
1943
2032
2082
2069
1998
1905
1849
1849
1920
2029
2105
2127
2077
1983
1897
1861
1893
1973
2042
2073
2033
1951
1861
1798
1794
1840
1904
1929
1905
1853
1802
1808
1905
2096
2307
2483
2605
2656
2674
2677
2672
2649
2559
2416
2211
1981
1774
1607
1526
1535
1648
1727
1777
1771
1703
1600
1526
1519
1595
1712
1815
1872
1859
1798
1743
1734
1801
1918
2022
2069
2047
1979
1895
1843
1862
1945
2045
2096
2082
2000
1907
1842
1846
1922
2022
2097
2105
2045
1961
1891
1876
1933
2032
2117
2138
2096
2007
1904
1855
1875
1968
2069
2128
2122
2059
1968
1918
1937
2016
2119
2190
2195
2148
2068
1996
1970
2018
2114
2192
2214
2178
2100
2011
1969
2002
2114
2225
2274
2261
2197
2111
2054
2064
2133
2231
2298
2303
2250
2171
2109
2110
2181
2288
2371
2401
2366
2274
2175
2113
2117
2192
2276
2319
2309
2251
2159
2108
2119
2199
2298
2352
2334
2258
2166
2093
2064
2103
2176
2231
2238
2182
2097
2002
1958
1975
2054
2138
2172
2142
2064
1961
1897
1896
1957
2042
2091
2071
2000
1895
1845
1827
1873
1966
2034
2061
2022
1946
1860
1819
1851
1933
2017
2059
2034
1959
1872
1818
1818
1889
1989
2064
2075
2029
1926
1852
1834
1881
1973
2046
2047
2001
1926
1856
1833
1869
1966
2063
2100
2082
1995
1899
1834
1840
1907
2007
2091
2112
2064
1981
1906
1879
1923
2000
2065
2071
2019
1937
1856
1819
1853
1942
2037
2091
2075
2001
1917
1857
1857
1910
2012
2064
2061
2000
1915
1849
1835
1874
1963
2024
2047
2022
1967
1881
1841
1872
1956
2045
2095
2069
1995
1906
1854
1858
1920
2015
2085
2087
2031
1942
1869
1847
1903
1995
2064
2069
2017
1936
1864
1834
1867
1955
2053
2097
2074
2000
1911
1856
1859
1936
2032
2087
2079
2017
1935
1870
1857
1911
2010
2086
2099
2039
1955
1862
1823
1859
1961
2061
2110
2096
2030
1944
1887
1886
1950
2037
2097
2096
2035
1957
1899
1901
1985
2070
2143
2148
2101
2006
1924
1881
1905
1990
2069
2105
2087
2037
1959
1919
1943
2032
2144
2206
2211
2158
2064
1983
1957
1999
2081
2137
2151
2112
2034
1957
1919
1935
2000
2079
2098
2063
1983
1878
1818
1824
1899
2003
2074
2075
2015
1936
1883
1878
1936
2029
2099
2112
2058
1957
1866
1825
1854
1939
2031
2069
2042
1973
1903
1862
1882
1958
2041
2096
2085
2019
1934
1867
1840
1859
1913
1948
1946
1902
1843
1814
1861
1999
2213
2411
2545
2621
2629
2619
2603
2578
2529
2432
2267
2066
1848
1653
1531
1501
1570
1679
1776
1799
1763
1680
1589
1555
1593
1703
1826
1911
1933
1903
1847
1817
1853
1946
2058
2107
2101
2029
1938
1876
1869
1934
2034
2114
2128
2081
1991
1906
1872
1909
1997
2084
2113
2096
2012
1923
1884
1915
2000
2112
2160
2164
2112
2030
1965
1954
2010
2103
2163
2176
2134
2055
1984
1957
1995
2090
2175
2205
2179
2109
2021
1983
2007
2109
2206
2258
2254
2185
2094
2015
2007
2093
2205
2298
2330
2291
2209
2119
2078
2108
2207
2310
2356
2348
2288
2224
2192
2222
2307
2405
2458
2446
2368
2277
2205
2193
2251
2336
2397
2391
2327
2229
2138
2105
2133
2223
2301
2327
2292
2207
2096
2006
1995
2074
2161
2208
2192
2127
2021
1952
1934
1979
2061
2096
2087
2025
1931
1850
1815
1847
1929
2003
2031
2000
1926
1840
1795
1796
1902
1991
2038
2030
1968
1872
1785
1771
1831
1929
2000
2015
1958
1889
1805
1776
1819
1908
2000
2034
2015
1941
1856
1809
1831
1904
2000
2057
2054
1997
1914
1847
1837
1887
1975
2023
2033
1978
1901
1835
1823
1879
1984
2082
2106
2074
1985
1915
1862
1877
1962
2045
2085
2063
1988
1886
1827
1817
1877
1968
2027
2027
1979
1901
1841
1836
1891
1998
2078
2095
2055
1965
1867
1813
1840
1923
2015
2067
2053
2000
1932
1885
1886
1950
2043
2112
2118
2069
1975
1895
1862
1899
1977
2055
2086
2055
1984
1882
1833
1841
1920
2010
2064
2055
1990
1919
1879
1904
1980
2071
2117
2115
2055
1969
1889
1862
1910
2007
2096
2128
2112
2036
1963
1931
1947
2062
2161
2211
2194
2129
2047
1990
1989
2047
2133
2189
2178
2125
2009
1927
1906
1950
2039
2117
2131
2087
1995
1904
1858
1883
1969
2059
2102
2082
2011
1933
1869
1858
1911
1993
2047
2067
2032
1966
1904
1889
1936
2021
2095
2109
2064
1984
1886
1847
1875
1955
2042
2091
2075
2000
1925
1865
1866
1926
2001
2032
1996
1910
1808
1744
1757
1861
2031
2210
2334
2407
2436
2456
2513
2637
2774
2859
2797
2605
2325
2034
1819
1701
1711
1760
1811
1819
1779
1709
1637
1607
1647
1737
1827
1863
1861
1814
1775
1765
1818
1929
2031
2083
2067
2000
1919
1872
1882
1952
2042
2113
2115
2064
1983
1914
1899
1954
2055
2131
2157
2128
2047
1968
1925
1947
2023
2099
2129
2112
2043
1962
1904
1920
2003
2112
2179
2191
2146
2055
1973
1951
1989
2077
2150
2179
2160
2095
2023
1997
2039
2134
2240
2287
2256
2182
2089
2017
2019
2097
2192
2259
2284
2243
2178
2124
2115
2175
2271
2352
2370
2337
2267
2198
2182
2229
2326
2422
2466
2439
2370
2284
2224
2233
2309
2416
2478
2485
2427
2324
2240
2206
2239
2298
2331
2318
2256
2163
2091
2067
2103
2193
2271
2302
2267
2192
2079
1994
1975
2021
2090
2112
2094
2027
1942
1874
1856
1909
2002
2081
2095
2039
1953
1871
1838
1872
1967
2054
2080
2034
1942
1840
1786
1789
1860
1955
2026
2035
1988
1904
1825
1799
1861
1957
2039
2064
2006
1943
1872
1842
1875
1968
2053
2082
2060
1985
1897
1840
1842
1929
2026
2081
2070
1997
1904
1831
1823
1890
1986
2074
2095
2047
1966
1879
1843
1869
1952
2022
2044
2011
1929
1844
1799
1817
1910
2020
2092
2093
2032
1948
1886
1877
1938
2035
2115
2124
2067
1967
1875
1844
1875
1968
2062
2096
2067
1987
1903
1850
1857
1934
2026
2083
2070
1998
1907
1834
1815
1872
1961
2023
2039
2013
1942
1875
1858
1904
1991
2078
2110
2086
1993
1919
1868
1877
1954
2037
2085
2080
2017
1941
1895
1904
1983
2099
2177
2197
2160
2071
1975
1924
1959
2047
2132
2162
2131
2060
1959
1895
1893
1955
2033
2077
2059
1984
1897
1831
1822
1884
1975
2041
2047
2014
1920
1847
1830
1877
1967
2058
2085
2047
1958
1866
1810
1833
1920
2025
2091
2083
2011
1923
1854
1853
1911
2000
2070
2068
2017
1924
1861
1834
1860
1941
1999
1990
1933
1828
1727
1682
1745
1885
2070
2212
2310
2362
2384
2427
2518
2672
2803
2838
2707
2455
2151
1875
1707
1655
1702
1766
1782
1749
1674
1584
1523
1535
1639
1750
1838
1872
1856
1813
1785
1808
1885
1981
2038
2042
1994
1909
1840
1821
1872
1972
2066
2096
2064
1982
1901
1853
1869
1949
2054
2112
2112
2047
1965
1904
1903
1970
2064
2112
2107
2047
1968
1899
1874
1921
2007
2101
2134
2107
2043
1947
1909
1939
2023
2115
2165
2160
2099
2007
1947
1954
2033
2145
2214
2222
2174
2093
2018
1999
2046
2151
2241
2291
2282
2211
2128
2094
2115
2202
2295
2341
2322
2256
2172
2119
2132
2214
2326
2406
2416
2369
2282
2195
2172
2217
2308
2387
2414
2377
2293
2213
2176
2199
2277
2348
2365
2331
2245
2151
2074
2063
2114
2193
2240
2229
2160
2046
1954
1910
1948
2017
2095
2112
2064
1969
1870
1801
1808
1891
1983
2035
2029
1983
1904
1845
1839
1897
1979
2035
2037
1983
1892
1810
1792
1840
1922
1990
2000
1959
1873
1794
1745
1776
1872
1977
2032
2029
1951
1854
1787
1787
1858
1949
2000
2000
1968
1854
1773
1751
1805
1905
1997
2030
2000
1923
1844
1819
1850
1905
2003
2037
2003
1927
1837
1778
1787
1851
1939
1993
2006
1971
1904
1841
1829
1871
1953
2020
2031
1991
1916
1831
1787
1808
1893
1987
2039
2032
1962
1875
1813
1813
1870
1965
2016
2011
1963
1874
1818
1811
1871
1965
2039
2063
2025
1941
1846
1795
1817
1904
1989
2034
2028
1967
1891
1840
1849
1920
2014
2073
2065
2002
1914
1846
1831
1886
1983
2064
2095
2064
1988
1923
1914
1966
2058
2144
2175
2159
2087
1996
1947
1955
2029
2119
2167
2158
2080
1965
1871
1846
1894
1977
2066
2075
2041
1954
1869
1823
1843
1922
2011
2054
2032
1955
1859
1807
1810
1883
1970
2019
2027
1975
1901
1835
1817
1879
1956
2025
2037
1997
1915
1828
1797
1835
1925
2018
2063
2032
1954
1871
1812
1815
1879
1950
1970
1932
1844
1741
1678
1703
1824
2015
2207
2343
2427
2475
2519
2615
2753
2890
2941
2810
2559
2256
1955
1724
1606
1598
1653
1701
1713
1665
1588
1509
1489
1535
1651
1744
1793
1792
1761
1722
1725
1785
1863
1983
2019
1999
1941
1851
1795
1812
1901
1994
2053
2043
1974
1890
1831
1830
1894
1986
2065
2082
2061
1959
1883
1860
1897
1979
2063
2095
2069
2000
1923
1886
1904
1993
2076
2128
2128
2079
1991
1936
1941
2013
2112
2177
2189
2141
2042
1953
1920
1961
2064
2159
2196
2178
2112
2027
1978
1984
2087
2178
2240
2256
2209
2147
2096
2096
2161
2260
2340
2366
2326
2251
2175
2145
2187
2283
2381
2429
2406
2335
2239
2175
2183
2270
2368
2442
2445
2379
2277
2197
2179
2222
2292
2343
2343
2279
2178
2085
2033
2060
2128
2191
2198
2163
2078
1971
1905
1900
1957
2027
2060
2035
1968
1873
1809
1807
1847
1959
2026
2032
1975
1871
1782
1755
1791
1882
1968
1998
1966
1887
1795
1746
1764
1840
1926
1962
1954
1894
1807
1743
1724
1782
1872
1935
1942
1891
1808
1728
1707
1744
1834
1925
1968
1943
1879
1799
1770
1776
1855
1946
1997
1989
1930
1858
1808
1805
1855
1934
1987
1987
1936
1856
1780
1765
1811
1911
2000
2037
2007
1936
1840
1779
1783
1853
1936
1973
1951
1879
1791
1743
1744
1815
1923
2005
2015
1966
1879
1809
1798
1840
1950
2026
2043
2000
1908
1809
1769
1786
1867
1952
1986
1966
1909
1817
1767
1775
1847
1946
2023
2037
1984
1894
1799
1761
1799
1891
1972
2005
1982
1903
1819
1773
1791
1874
1969
2016
2003
1943
1872
1817
1819
1883
1969
2032
2032
1971
1883
1808
1786
1834
1925
1999
2017
1978
1895
1818
1781
1804
1891
1996
2058
2047
1970
1872
1801
1798
1863
1963
2032
2047
1995
1905
1830
1808
1863
1968
2054
2083
2045
1968
1891
1853
1874
1968
2039
2084
2067
1993
1904
1838
1837
1897
1985
2047
2067
2023
1957
1892
1877
1923
2017
2113
2160
2137
2068
1990
1951
1968
2037
2125
2160
2127
2045
1940
1869
1864
1927
2009
2062
2045
1989
1901
1827
1808
1866
1943
2021
2044
2011
1934
1849
1816
1849
1938
2030
2066
2031
1967
1850
1776
1776
1854
1958
2026
2032
1986
1923
1872
1866
1918
2015
2091
2103
2063
1962
1854
1778
1767
1815
1877
1911
1922
1902
1897
1953
2096
2303
2524
2704
2814
2845
2795
2672
2487
2288
2125
1984
1840
1685
1558
1452
1409
1443
1535
1648
1701
1687
1627
1535
1503
1535
1664
1813
1922
1965
1936
1872
1815
1813
1872
1984
2081
2115
2090
2003
1925
1883
1907
1986
2078
2115
2103
2028
1938
1873
1879
1968
2081
2150
2150
2086
1971
1910
1885
1926
2017
2099
2133
2113
2058
1998
1975
2011
2097
2174
2198
2176
2098
2006
1955
1968
2047
2151
2217
2224
2177
2102
2038
2031
2094
2190
2255
2266
2228
2145
2070
2037
2090
2181
2287
2338
2331
2267
2192
2131
2129
2192
2283
2348
2354
2320
2241
2185
2190
2270
2375
2448
2448
2396
2291
2197
2160
2189
2285
2379
2419
2402
2327
2239
2175
2172
2224
2289
2322
2295
2224
2127
2047
2021
2067
2157
2224
2225
2177
2077
1982
1936
1953
2025
2095
2110
2071
1984
1897
1847
1856
1931
2014
2058
2030
1955
1856
1787
1771
1817
1907
1986
2010
1973
1902
1817
1795
1841
1938
2030
2076
2034
1947
1851
1790
1803
1881
1988
2055
2062
2000
1917
1855
1856
1925
2019
2096
2098
2029
1920
1830
1798
1835
1923
2017
2061
2036
1971
1883
1830
1840
1911
2002
2067
2063
1999
1906
1840
1835
1881
1970
2037
2063
2019
1945
1882
1857
1892
1977
2047
2074
2032
1957
1866
1814
1828
1902
1993
2059
2047
1985
1873
1803
1782
1840
1937
2019
2037
2000
1950
1887
1866
1898
1973
2039
2066
2022
1935
1840
1786
1798
1887
2000
2077
2091
2021
1936
1872
1867
1922
2016
2086
2084
2023
1931
1849
1822
1868
1962
2045
2083
2061
1983
1909
1868
1886
1962
2047
2099
2082
2015
1909
1840
1826
1878
1968
2038
2064
2025
1947
1872
1851
1895
1991
2084
2115
2086
2001
1921
1882
1909
1983
2081
2123
2103
2017
1916
1855
1852
1919
2018
2087
2114
2075
1994
1920
1889
1930
2023
2115
2152
2130
2079
1995
1965
1984
2066
2153
2191
2166
2093
1986
1919
1902
1926
2021
2085
2087
2025
1936
1856
1825
1857
1935
2007
2032
1997
1938
1862
1845
1888
1981
2082
2127
2114
2037
1936
1847
1824
1874
1963
2033
2061
2023
1964
1892
1856
1889
1967
2058
2090
2063
1978
1883
1805
1781
1825
1886
1927
1929
1897
1863
1889
2000
2192
2407
2583
2687
2720
2699
2639
2559
2479
2374
2246
2089
1904
1724
1586
1515
1516
1595
1678
1713
1700
1653
1535
1491
1525
1639
1783
1895
1951
1939
1887
1831
1823
1877
1970
2066
2094
2063
1989
1913
1866
1878
1967
2063
2112
2102
2032
1949
1895
1897
1968
2064
2127
2119
2087
2000
1931
1904
1937
2021
2099
2121
2089
2007
1936
1905
1936
2033
2129
2180
2171
2100
2016
1966
1970
2047
2147
2205
2206
2150
2063
1987
1973
2031
2146
2237
2269
2251
2181
2108
2067
2096
2176
2269
2311
2299
2235
2160
2112
2118
2186
2286
2353
2373
2337
2256
2191
2176
2224
2315
2391
2416
2381
2304
2229
2193
2221
2295
2378
2415
2394
2320
2224
2160
2157
2214
2294
2342
2325
2253
2149
2063
2019
2059
2138
2210
2224
2177
2082
1983
1919
1919
1981
2065
2108
2093
2018
1921
1858
1845
1904
1989
2047
2059
2000
1911
1837
1824
1871
1949
2002
2006
1959
1867
1793
1768
1807
1904
2002
2045
2032
1961
1875
1819
1823
1884
1974
2019
2010
1956
1873
1814
1806
1863
1959
2037
2061
2023
1933
1850
1817
1855
1947
2038
2079
2053
1981
1887
1827
1834
1904
1993
2061
2064
2015
1936
1869
1854
1899
1983
2063
2079
2037
1965
1886
1856
1875
1959
2045
2090
2064
1987
1905
1851
1866
1935
2025
2075
2070
2007
1919
1840
1819
1872
1968
2046
2074
2034
1968
1891
1860
1886
