1664
1599
1465
1332
1273
1323
1441
1570
1631
1595
1487
1380
1332
1387
1511
1664
1758
1770
1685
1558
1454
1443
1535
1677
1783
1815
1765
1648
1533
1503
1578
1714
1847
1909
1886
1783
1671
1607
1648
1775
1920
2029
2058
1987
1879
1797
1789
1877
2017
2135
2179
2125
2005
1895
1843
1890
1996
2117
2185
2160
2039
1904
1822
1857
1965
2095
2198
2219
2141
2003
1892
1863
1917
2005
2093
2101
2011
1880
1774
1737
1797
1920
2032
2096
2046
1936
1815
1744
1765
1872
2001
2101
2103
2003
1869
1760
1730
1789
1889
1969
1983
1903
1754
1625
1573
1622
1735
1853
1919
1903
1819
1715
1669
1719
1847
1988
2083
2089
2002
1885
1798
1799
1897
2029
2128
2155
2093
1961
1842
1786
1823
1927
2038
2105
2079
1977
1857
1793
1827
1936
2062
2145
2153
2075
1951
1871
1879
1974
2107
2206
2224
2149
2017
1899
1843
1897
2010
2128
2179
2142
2023
1890
1806
1826
1925
2045
2119
2111
2023
1893
1793
1781
1859
1984
2092
2115
2058
1940
1840
1808
1867
1984
2103
2159
2124
2007
1875
1809
1835
1937
2058
2117
2101
2000
1873
1776
1774
1869
2027
2177
2283
2317
2315
2346
2453
2670
2915
3126
3241
3245
3143
2996
2880
2821
2802
2751
2621
2416
2146
1872
1657
1584
1639
1759
1878
1934
1901
1796
1698
1669
1733
1847
1951
2000
1955
1851
1723
1653
1678
1776
1897
1968
1957
1871
1743
1649
1638
1718
1839
1933
1956
1889
1760
1643
1614
1675
1791
1899
1948
1908
1795
1667
1586
1597
1687
1804
1871
1862
1776
1655
1573
1571
1659
1792
1901
1935
1885
1774
1661
1619
1679
1803
1910
1953
1904
1789
1663
1591
1612
1712
1815
1886
1875
1794
1680
1605
1619
1714
1841
1932
1953
1895
1782
1678
1639
1701
1823
1945
2010
1984
1899
1798
1753
1797
1910
2032
2115
2117
2029
1910
1822
1808
1894
2007
2099
2117
2039
1918
1802
1759
1799
1905
1995
2020
1957
1813
1670
1594
1614
1709
1815
1897
1899
1821
1700
1613
1607
1686
1809
1901
1913
1836
1710
1593
1553
1614
1737
1843
1890
1847
1735
1609
1530
1535
1638
1744
1818
1814
1731
1616
1529
1535
1641
1772
1858
1879
1806
1680
1564
1520
1584
1701
1811
1867
1827
1719
1604
1535
1596
1715
1848
1934
1926
1840
1714
1617
1615
1704
1808
1886
1902
1829
1712
1616
1603
1677
1798
1914
1974
1953
1855
1739
1680
1714
1817
1926
2000
2001
1932
1827
1767
1791
1882
2002
2101
2117
2046
1925
1808
1782
1866
1999
2128
2208
2195
2116
2015
1968
2007
2112
2218
2287
2274
2188
2071
1983
1982
2076
2201
2297
2310
2243
2127
2027
2000
2079
2197
2304
2353
2318
2214
2103
2037
2070
2170
2277
2346
2327
2234
2111
2011
2013
2113
2242
2340
2354
2289
2166
2057
2023
2099
2222
2330
2370
2322
2198
2065
1989
2026
2134
2256
2325
2314
2224
2098
1999
2006
2105
2234
2327
2340
2263
2137
2032
2013
2092
2210
2311
2350
2301
2191
2070
2006
2047
2160
2276
2343
2314
2210
2098
2023
2037
2145
2257
2342
2341
2255
2127
2017
2000
2081
2201
2306
2347
2287
2162
2027
1959
1995
2115
2235
2290
2263
2160
2021
1926
1934
2025
2146
2224
2225
2130
1975
1840
1799
1862
1988
2098
2154
2144
2097
2064
2122
2298
2559
2844
3056
3163
3139
3057
3010
3040
3131
3197
3178
3007
2715
2361
2055
1853
1793
1826
1887
1911
1866
1761
1645
1589
1631
1743
1847
1891
1842
1721
1584
1490
1504
1615
1751
1840
1847
1765
1641
1535
1562
1670
1819
1943
1984
1938
1838
1728
1685
1746
1875
2000
2064
2035
1939
1825
1750
1776
1874
2000
2081
2091
2027
1904
1803
1791
1865
1982
2086
2118
2065
1950
1850
1815
1895
2027
2157
2215
2190
2095
1977
1904
1923
2022
2142
2218
2224
2153
2029
1928
1913
1982
2106
2207
2244
2188
2066
1951
1890
1938
2064
2173
2220
2181
2064
1911
1808
1808
1894
2013
2101
2112
2039
1926
1840
1825
1904
2029
2127
2145
2086
1942
1819
1770
1819
1927
2032
2076
2034
1926
1788
1695
1706
1792
1899
1958
1951
1857
1727
1623
1601
1675
1794
1889
1904
1835
1711
1600
1559
1623
1741
1843
1890
1849
1735
1603
1524
1535
1639
1749
1811
1803
1709
1573
1461
1445
1515
1631
1723
1760
1715
1611
1500
1458
1522
1649
1772
1840
1815
1714
1599
1534
1561
1686
1809
1899
1893
1805
1664
1553
1533
1621
1755
1873
1933
1890
1797
1708
1691
1774
1910
2039
2105
2071
1959
1840
1761
1790
1898
2011
2091
2071
1968
1833
1722
1714
1808
1941
2059
2090
2015
1891
1783
1744
1802
1921
2039
2099
2071
1962
1839
1773
1805
1917
2030
2102
2093
1995
1856
1755
1750
1847
1975
2073
2095
2019
1885
1767
1727
1790
1911
2017
2068
2023
1909
1776
1696
1725
1823
1935
1984
1963
1870
1739
1637
1633
1712
1826
1907
1911
1838
1699
1571
1520
1577
1695
1814
1873
1849
1752
1644
1573
1601
1709
1834
1908
1897
1803
1665
1575
1573
1664
1797
1907
1947
1898
1793
1703
1683
1772
1915
2055
2114
2087
1983
1872
1822
1863
1971
2097
2161
2140
2032
1906
1827
1829
1910
2021
2111
2125
2047
1919
1794
1751
1809
1932
2045
2102
2059
1936
1808
1732
1759
1874
2017
2119
2128
2033
1893
1787
1775
1855
1973
2073
2101
2046
1951
1869
1854
1923
2047
2160
2197
2144
2003
1872
1810
1846
1955
2085
2178
2223
2201
2161
2176
2305
2545
2839
3104
3253
3257
3165
3071
3047
3103
3164
3153
3015
2759
2433
2123
1883
1801
1827
1907
1991
1998
1927
1822
1739
1743
1828
1940
2016
2032
1955
1814
1690
1648
1701
1817
1931
1975
1933
1818
1706
1649
1687
1796
1921
2010
2023
1968
1887
1839
1875
1998
2157
2269
2300
2241
2128
2022
1997
2066
2198
2321
2383
2360
2274
2176
2124
2169
2293
2421
2491
2478
2383
2259
2186
2199
2300
2431
2529
2558
2479
2349
2230
2189
2238
2341
2434
2464
2411
2291
2165
2111
2158
2277
2403
2479
2469
2384
2277
2192
2205
2310
2446
2544
2559
2507
2390
2282
2251
2322
2448
2555
2603
2555
2431
2295
2208
2227
2325
2423
2478
2447
2337
2198
2102
2091
2166
2278
2352
2342
2249
2112
1983
1931
1978
2083
2178
2197
2128
1987
1855
1790
1821
1934
2061
2130
2121
2019
1879
1773
1768
1861
1987
2096
2113
2036
1906
1793
1748
1811
1936
2047
2098
2046
1927
1805
1728
1758
1868
1990
2064
2041
1939
1811
1728
1738
1837
1961
2047
2064
1998
1877
1763
1728
1789
1908
2005
2039
1990
1878
1767
1700
1732
1840
1969
2055
2047
1952
1817
1727
1733
1827
1939
2019
2027
1950
1812
1694
1653
1712
1837
1939
1979
1926
1805
1676
1600
1628
1733
1849
1906
1877
1781
1648
1535
1535
1647
1771
1856
1861
1779
1651
1535
1513
1596
1726
1846
1899
1859
1742
1612
1535
1575
1679
1794
1860
1851
1761
1645
1571
1586
1686
1813
1907
1931
1870
1757
1651
1632
1709
1840
1949
1985
1927
1791
1662
1585
1621
1755
1890
1973
1963
1868
1738
1648
1653
1750
1872
1955
1970
1904
1777
1673
1639
1707
1840
1954
2009
1968
1851
1728
1670
1723
1861
2000
2087
2073
1966
1828
1729
1743
1843
1964
2043
2058
1978
1851
1739
1707
1775
1887
1984
2015
1967
1847
1727
1648
1667
1758
1850
1895
1863
1761
1646
1575
1598
1704
1839
1923
1918
1810
1670
1557
1535
1615
1734
1842
1884
1835
1725
1615
1569
1606
1711
1811
1867
1856
1776
1664
1610
1671
1843
2075
2283
2420
2489
2496
2494
2533
2645
2798
2927
2974
2891
2688
2429
2186
2031
1968
1937
1890
1806
1678
1535
1488
1530
1663
1810
1922
1951
1891
1776
1693
1681
1773
1893
1982
2005
1962
1845
1729
1671
1721
1841
1968
2037
2017
1917
1782
1684
1680
1777
1903
1998
1989
1904
1766
1663
1633
1711
1840
1945
1977
1921
1809
1697
1647
1694
1808
1932
1998
1994
1907
1783
1697
1694
1785
1902
1989
2000
1923
1808
1719
1705
1789
1918
2032
2077
2027
1904
1786
1735
1786
1905
2023
2096
2093
1998
1881
1806
1830
1936
2075
2165
2175
2098
1968
1865
1845
1925
2064
2182
2230
2192
2090
1970
1928
1984
2114
2246
2326
2325
2238
2115
2027
2027
2112
2211
2271
2256
2151
2005
1899
1858
1921
2018
2096
2090
1979
1810
1648
1535
1535
1634
1729
1775
1741
1647
1523
1455
1470
1573
1693
1776
1771
1689
1565
1447
1407
1459
1574
1671
1712
1673
1567
1443
1393
1441
1562
1682
1746
1730
1633
1498
1421
1427
1516
1630
1712
1730
1675
1559
1456
1436
1506
1616
1712
1754
1712
1613
1502
1463
1514
1659
1802
1873
1862
1771
1664
1601
1626
1727
1857
1942
1958
1877
1757
1652
1639
1725
1864
1967
2003
1957
1829
1695
1635
1673
1776
1886
1943
1917
1809
1680
1598
1600
1691
1809
1893
1899
1822
1703
1602
1584
1653
1778
1887
1933
1879
1768
1647
1589
1623
1728
1833
1878
1866
1771
1643
1535
1555
1653
1786
1881
1895
1831
1724
1642
1637
1719
1845
1947
1994
1954
1856
1747
1703
1745
1854
1973
2033
2007
1906
1787
1713
1730
1835
1965
2053
2061
1975
1856
1758
1729
1794
1904
1998
2027
1978
1861
1742
1683
1726
1824
1931
1999
1983
1891
1769
1680
1687
1776
1879
1969
1987
1921
1806
1710
1689
1759
1872
1955
1973
1916
1785
1655
1598
1633
1739
1855
1924
1918
1826
1709
1615
1617
1712
1815
1884
1882
1817
1728
1683
1745
1917
2156
2391
2559
2658
2640
2581
2559
2629
2763
2878
2903
2787
2527
2211
1926
1759
1715
1739
1769
1747
1669
1563
1481
1493
1606
1761
1879
1916
1867
1756
1648
1615
1679
1797
1920
1987
1963
1861
1735
1652
1679
1799
1937
2011
1994
1897
1772
1683
1683
1776
1917
2028
2078
2027
1916
1809
1771
1831
1958
2077
2128
2096
1988
1877
1811
1840
1943
2078
2158
2159
2073
1939
1845
1839
1936
2070
2161
2183
2122
2003
1907
1878
1937
2059
2160
2208
2165
2061
1949
1903
1948
2076
2202
2287
2290
2226
2117
2029
2027
2126
2256
2363
2389
2334
2224
2118
2086
2145
2259
2374
2434
2410
2304
2187
2121
2160
2266
2387
2468
2457
2355
2206
2096
2067
2144
2256
2333
2319
2224
2070
1933
1877
1920
2019
2117
2151
2096
1970
1840
1765
1791
1889
2001
2080
2053
1941
1793
1689
1674
1747
1851
1920
1936
1887
1782
1695
1669
1744
1873
2000
2065
2039
1941
1830
1783
1830
1949
2082
2162
2163
2083
1967
1885
1878
1963
2084
2176
2191
2122
1997
1893
1872
1947
2078
2177
2215
2160
2025
1898
1823
1852
1966
2099
2178
2164
2075
1947
1869
1879
1982
2126
2219
2219
2127
1984
1877
1857
1923
2058
2170
2218
2169
2042
1904
1833
1860
1968
2093
2153
2133
2034
1910
1817
1818
1906
2020
2096
2099
2026
1904
1798
1775
1841
1951
2057
2095
2055
1941
1818
1746
1776
1881
1990
2062
2034
1921
1781
1686
1689
1788
1920
2013
2029
1957
1838
1724
1693
1758
1869
1962
1987
1953
1866
1771
1730
1786
1904
2025
2096
2071
1963
1827
1730
1728
1807
1919
2010
2032
1968
1865
1767
1739
1808
1933
2035
2077
2023
1918
1808
1755
1795
1905
2023
2095
2081
1983
1861
1776
1792
1891
2014
2114
2128
2061
1931
1822
1795
1871
1991
2095
2112
2033
1903
1771
1711
1761
1899
2064
2192
2257
2266
2246
2279
2403
2613
2827
2971
3014
2960
2847
2736
2657
2639
2624
2546
2390
2163
1891
1653
1520
1525
1643
1775
1858
1857
1785
1675
1600
1616
1724
1855
1955
1973
1904
1778
1670
1643
1726
1872
2001
2059
2009
1898
1777
1728
1766
1873
1975
2038
2032
1957
1865
1810
1843
1949
2087
2178
2194
2122
2000
1904
1873
1936
2055
2159
2192
2146
2033
1920
1867
1913
2031
2160
2240
2233
2147
2032
1954
1967
2062
2177
2258
2266
2186
2046
1934
1906
1972
2102
2208
2256
2218
2110
2000
1973
2023
2142
2256
2320
2296
2203
2089
2000
2013
2114
2240
2313
2310
2229
2101
1994
1979
2070
2196
2295
2338
2286
2167
2063
2003
2032
2133
2243
2302
2269
2158
2011
1919
1925
2016
2126
2181
2160
2054
1908
1791
1765
1836
1943
2033
2071
2026
1915
1795
1757
1813
1933
2047
2112
2081
1968
1835
1749
1775
1899
2058
2160
2175
2093
1951
1841
1815
1890
2020
2135
2176
2128
2014
1906
1869
1922
2032
2130
2171
2130
2030
1913
1843
1870
1969
2089
2160
2154
2064
1927
1813
1785
1856
1983
2095
2128
2066
1938
1814
1766
1809
1936
2065
2135
2112
2005
1881
1795
1797
1887
2009
2097
2102
2027
1914
1821
1815
1903
2029
2134
2177
2128
2010
1899
1847
1895
1999
2115
2163
2133
2031
1894
1808
1819
1927
2063
2150
2160
2093
1971
1866
1849
1925
2032
2115
2129
2067
1949
1838
1799
1867
2000
2129
2191
2140
2009
1872
1792
1813
1925
2063
2143
2145
2065
1946
1854
1854
1951
2102
2223
2251
2183
2045
1917
1866
1905
2025
2131
2177
2129
2006
1879
1813
1850
1971
2109
2186
2183
2111
1984
1881
1856
1938
2085
2212
2258
2202
2075
1937
1873
1920
2047
2178
2242
2217
2109
1983
1918
1937
2025
2130
2187
2160
2067
1930
1820
1794
1857
1957
2032
2036
1966
1853
1771
1779
1917
2143
2382
2559
2682
2704
2683
2673
2727
2859
2994
3082
3034
2861
2584
2295
2074
1958
1924
1918
1889
1808
1681
1583
1535
1615
1763
1902
1968
1943
1853
1735
1668
1694
1803
1923
1995
1990
1909
1791
1696
1691
1781
1921
2027
2059
1993
1876
1763
1719
1776
1893
1994
2033
1996
1882
1753
1686
1727
1840
1953
2025
2017
1927
1799
1695
1680
1750
1872
1970
1997
1933
1806
1689
1659
1734
1865
1984
2032
2002
1899
1778
1709
1731
1837
1958
2038
2039
1949
1819
1723
1717
1803
1927
2029
2062
2003
1883
1775
1732
1797
1918
2025
2079
2032
1927
1806
1744
1775
1893
2017
2096
2094
2006
1883
1786
1778
1850
1959
2045
2064
1983
1846
1721
1678
1727
1837
1929
1949
1887
1770
1637
1555
1575
1677
1795
1871
1861
1762
1623
1514
1500
1583
1693
1787
1808
1745
1621
1495
1455
1507
1631
1745
1794
1759
1659
1535
1472
1509
1618
1739
1806
1799
1721
1602
1517
1520
1611
1741
1846
1889
1840
1737
1629
1593
1654
1774
1878
1920
1875
1777
1655
1589
1625
1734
1861
1939
1936
1847
1728
1648
1647
1735
1856
1936
1939
1867
1730
1613
1562
1629
1770
1898
1954
1907
1782
1647
1567
1591
1707
1829
1919
1936
1855
1739
1661
1675
1774
1889
1983
1997
1931
1819
1732
1711
1786
1913
2027
2082
2040
1927
1805
1728
1764
1875
2000
2074
2047
1946
1809
1718
1719
1813
1936
2031
2045
1980
1871
1786
1770
1856
1995
2108
2151
2115
2006
1903
1838
1869
1968
2090
2153
2131
2036
1907
1814
1819
1911
2045
2152
2173
2111
1984
1875
1854
1926
2060
2165
2213
2174
2079
1971
1936
1990
2113
2230
2290
2266
2160
2010
1903
1890
1969
2098
2186
2198
2122
1984
1866
1840
1905
2031
2150
2184
2139
2007
1886
1827
1867
1983
2103
2170
2144
2032
1897
1810
1815
1920
2047
2128
2128
2047
1923
1827
1813
1891
2019
2125
2156
2109
1994
1872
1813
1855
1986
2157
2285
2346
2357
2352
2400
2547
2786
3020
3175
3223
3173
3046
2923
2834
2800
2769
2688
2533
2302
2035
1808
1683
1695
1809
1951
2041
2058
1971
1853
1766
1764
1855
1968
2055
2074
2006
1902
1808
1787
1863
1987
2091
2113
2042
1907
1781
1726
1772
1879
1991
2062
2034
1941
1828
1738
1746
1829
1937
2021
2031
1963
1842
1755
1750
1839
1984
2128
2193
2160
2057
1936
1881
1915
2029
2159
2230
2219
2115
1984
1899
1907
2009
2146
2242
2266
2206
2096
1995
1971
2046
2178
2288
2335
2293
2182
2060
1994
2041
2176
2298
2361
2332
2224
2103
2033
2077
2214
2372
2505
2543
2496
2407
2325
2311
2389
2527
2651
2704
2660
2544
2435
2382
2423
2534
2651
2703
2671
2556
2417
2330
2330
2413
2511
2578
2559
2445
2284
2147
2100
2155
2258
2347
2374
2333
2223
2109
2044
2077
2186
2298
2355
2329
2227
2096
2000
2001
2094
2210
2302
2316
2240
2116
2003
1987
2069
2198
2309
2347
2298
2191
2067
2002
2032
2127
2215
2259
2230
2143
2032
1962
1975
2071
2192
2275
2279
2208
2081
1965
1919
1968
2077
2160
2177
2102
1968
1851
1792
1840
1963
2092
2158
2128
2021
1904
1840
1873
1987
2134
2231
2256
2192
2097
2014
2001
2078
2186
2267
2295
2250
2139
2031
1997
2047
2171
2293
2367
2354
2259
2129
2045
2067
2182
2315
2416
2439
2365
2240
2135
2111
2174
2288
2377
2395
2323
2189
2061
2000
2055
2164
2273
2337
2317
2206
2079
2000
2027
2134
2248
2320
2317
2240
2118
2013
1991
2073
2203
2301
2320
2253
2116
1983
1933
1975
2095
2221
2288
2267
2167
2039
1968
1984
2074
2187
2256
2247
2160
2029
1941
1939
2032
2156
2246
2265
2205
2099
1989
1937
1974
2079
2192
2251
2224
2129
2000
1920
1935
2032
2154
2221
2199
2113
1999
1915
1925
2033
2189
2303
2332
2272
2147
2018
1962
1997
2099
2206
2256
2220
2099
1963
1873
1890
1993
2112
2186
2177
2090
1943
1838
1823
1911
2033
2125
2129
2064
1936
1815
1776
1824
1943
2063
2126
2112
2017
1904
1833
1856
1966
2096
2171
2160
2064
1936
1838
1822
1901
2010
2101
2111
2030
1907
1808
1796
1905
2095
2294
2451
2546
2559
2559
2597
2672
2803
2946
3051
3051
2933
2725
2494
2301
2178
2125
2067
1991
1861
1714
1601
1565
1631
1759
1887
1949
1914
1794
1657
1579
1600
1714
1847
1927
1911
1821
1685
1584
1559
1643
1775
1886
1920
1857
1730
1609
1570
1637
1761
1873
1951
1934
1833
1715
1655
1697
1808
1927
1990
1973
1873
1739
1636
1627
1713
1840
1936
1953
1882
1772
1674
1661
1739
1870
1985
2032
2000
1902
1776
1702
1733
1857
2003
2095
2075
1973
1842
1758
1768
1856
1979
2077
2097
2032
1927
1838
1811
1879
2000
2118
2179
2149
2042
1920
1857
1895
2003
2127
2193
2192
2110
1973
1872
1857
1936
2063
2151
2165
2107
1989
1884
1839
1887
1995
2097
2143
2110
1987
1852
1770
1777
1859
1941
1981
1936
1818
1674
1570
1557
1638
1751
1841
1857
1792
1675
1570
1533
1602
1726
1819
1851
1795
1684
1584
1531
1583
1688
1808
1879
1863
1761
1632
1535
1535
1626
1741
1831
1846
1780
1669
1579
1563
1632
1765
1882
1931
1897
1792
1679
1619
1663
1777
1891
1964
1961
1865
1735
1651
1658
1759
1887
1970
1991
1930
1811
1700
1666
1735
1859
1974
2017
1974
1854
1741
1694
1744
1870
1998
2080
2064
1967
1837
1744
1744
1827
1937
2009
2032
1973
1859
1751
1707
1766
1882
1981
2015
1967
1845
1722
1653
1682
1790
1904
1968
1949
1855
1722
1627
1621
1716
1845
1937
1965
1898
1776
1670
1648
1719
1847
1956
1998
1947
1823
1701
1648
1693
1805
1921
1969
1917
1792
1653
1565
1589
1679
1808
1902
1904
1830
1698
1574
1535
1615
1727
1831
1874
1842
1732
1613
1535
1587
1699
1818
1891
1871
1776
1653
1566
1577
1675
1807
1902
1919
1847
1728
1629
1607
1681
1812
1915
1957
1909
1794
1680
1623
1669
1782
1902
1951
1922
1809
1679
1585
1588
1680
1801
1884
1901
1826
1706
1600
1561
1630
1749
1855
1903
1858
1756
1642
1595
1634
1748
1867
1935
1920
1813
1686
1600
1615
1714
1845
1934
1943
1859
1727
1629
1616
1691
1815
1920
1967
1918
1798
1687
1641
1692
1799
1910
1969
1943
1849
1740
1670
1683
1783
1899
1974
1974
1898
1774
1675
1650
1729
1845
1941
1971
1918
1796
1671
1605
1638
1751
1867
1934
1913
1813
1690
1616
1639
1747
1875
1968
1983
1919
1801
1707
1685
1751
1857
1936
1959
1904
1785
1671
1637
1713
1882
2082
2242
2342
2384
2405
2454
2582
2751
2906
3008
3027
2963
2835
2688
2559
2496
2437
2358
2224
2037
1831
1665
1597
1643
1767
1893
1968
1952
1854
1727
1648
1669
1782
1921
2002
2006
1932
1819
1710
1685
1760
1874
1982
2015
1959
1840
1715
1675
1742
1876
2006
2081
2064
1956
1825
1744
1771
1876
2004
2097
2098
2011
1887
1793
1783
1870
1984
2082
2113
2064
1943
1831
1783
1840
1965
2083
2145
2126
2032
1921
1863
1882
1985
2109
2183
2181
2090
1967
1873
1863
1949
2075
2171
2202
2148
2027
1911
1872
1922
2035
2157
2213
2191
2096
1982
1918
1966
2064
2187
2265
2274
2193
2079
1983
1975
2069
2188
2288
2307
2247
2127
1997
1951
1989
2096
2185
2221
2171
2047
1914
1839
1859
1951
2062
2127
2096
1986
1840
1728
1704
1778
1895
1984
2001
1925
1791
1664
1612
1660
1776
1883
1936
1904
1798
1669
1595
1605
1696
1809
1882
1865
1776
1653
1557
1535
1633
1761
1866
1904
1851
1737
1630
1593
1649
1776
1887
1933
1887
1778
1659
1600
1642
1765
1901
1967
1945
1852
1734
1644
1631
1707
1815
1902
1916
1855
1731
1616
1584
1648
1775
1883
1932
1899
1793
1669
1612
1643
1754
1878
1952
1947
1858
1731
1633
1629
1713
1840
1934
1951
1886
1767
1655
1611
1664
1776
1890
1954
1937
1855
1751
1711
1745
1850
1963
2028
2004
1891
1739
1622
1602
1681
1808
1895
1903
1824
1698
1599
1575
1663
1819
1949
2000
1967
1866
1760
1707
1744
1855
1981
2055
2053
1961
1847
1767
1767
1852
1966
2046
2064
1979
1869
1778
1762
1831
1955
2063
2106
2074
1971
1872
1822
1862
1973
2096
2164
2157
2066
1941
1857
1863
1961
2094
2182
2193
2132
2000
1891
1856
1919
2045
2159
2192
2139
2021
1894
1825
1856
1962
2085
2167
2160
2079
1950
1855
1845
1923
2042
2151
2186
2133
2023
1914
1877
1949
2071
2166
2207
2162
2054
1933
1872
1905
2006
2131
2209
2205
2114
1987
1902
1898
1974
2095
2176
2185
2114
1982
1867
1833
1895
2015
2135
2182
2135
2030
1921
1866
1904
2011
2129
2195
2188
2097
1972
1889
1908
2015
2154
2240
2235
2160
2026
1917
1885
1955
2098
2207
2253
2210
2105
1984
1916
1965
2079
2203
2272
2262
2160
2016
1917
1922
2032
2175
2277
2292
2214
2079
1949
1897
1937
2041
2143
2178
2142
2032
1919
1861
1894
1995
2103
2150
2116
2003
1887
1806
1817
1909
2029
2123
2127
2038
1907
1794
1760
1829
1947
2041
2067
2015
1914
1807
1757
1798
1911
2032
2107
2095
1979
1829
1723
1716
1811
1939
2053
2107
2091
2035
2030
2119
2326
2607
2864
3033
3062
2981
2896
2871
2927
3009
3053
2981
2771
2458
2128
1857
1712
1698
1750
1808
1811
1745
1647
1535
1528
1605
1729
1840
1889
1846
1747
1647
1606
1653
1774
1894
1963
1951
1863
1747
1679
1697
1807
1938
2038
2059
1995
1889
1798
1786
1857
1980
2091
2123
2065
1938
1815
1751
1799
1914
2042
2122
2111
2016
1903
1824
1837
1933
2054
2128
2131
2061
1939
1845
1830
1915
2037
2142
2176
2121
2000
1879
1829
1882
2011
2149
2224
2207
2112
1994
1922
1938
2041
2163
2239
2240
2157
2029
1934
1937
2046
2198
2315
2357
2306
2192
2071
2005
2042
2148
2259
2336
2330
2249
2141
2071
2096
2187
2297
2369
2369
2287
2155
2047
2032
2110
2224
2307
2317
2235
2087
1938
1872
1909
2005
2112
2157
2117
1989
1851
1761
1776
1877
2000
2087
2087
2000
1869
1758
1738
1820
1941
2046
2074
2007
1898
1782
1744
1791
1899
1988
2029
1990
1886
1758
1679
1691
1788
1902
1979
1984
1896
1759
1661
1664
1775
1917
2029
2066
1999
1876
1757
1710
1754
1869
1978
2031
2003
1915
1814
1749
1776
1887
1997
2075
2058
1963
1829
1714
1696
1776
1894
1986
2007
1954
1841
1728
1677
1712
1827
1940
2000
1968
1866
1744
1669
1695
1795
1919
1994
1983
1887
1744
1635
1625
1714
1854
1954
1974
1919
1797
1675
1624
1684
1804
1909
1956
1918
1808
1683
1617
1651
1759
1871
1939
1939
1870
1762
1679
1683
1776
1902
1999
2032
1963
1839
1727
1680
1728
1833
1935
1991
1968
1875
1770
1711
1745
1859
1981
2045
2021
1922
1799
1719
1730
1833
1959
2064
2082
2017
1898
1787
1749
1813
1936
2055
2112
2066
1959
1839
1776
1797
1899
2013
2075
2064
1978
1849
1757
1743
1822
1939
2034
2064
1990
1871
1748
1711
1776
1902
2028
2093
2047
1939
1828
1764
1781
1879
1985
2062
2059
1971
1844
1759
1759
1855
1979
2087
2113
2037
1908
1794
1757
1819
1943
2069
2126
2107
2009
1918
1863
1889
1986
2097
2167
2160
2079
1949
1854
1854
1947
2080
2174
2190
2112
1983
1872
1843
1911
2032
2146
2192
2150
2032
1904
1833
1856
1948
2057
2113
2096
2014
1898
1824
1840
1953
2098
2204
2226
2153
2022
1917
1883
1955
2086
2197
2245
2210
2112
2003
1955
1989
2101
2211
2278
2263
2183
2064
1971
1973
2059
2167
2253
2254
2175
2056
1943
1919
1984
2099
2190
2211
2160
2038
1933
1887
1927
2031
2143
2202
2183
2085
1943
1858
1863
1959
2083
2166
2180
2108
1975
1868
1835
1893
1999
2095
2117
2064
1952
1856
1854
1983
2196
2430
2645
2797
2864
2882
2897
2965
3104
3265
3376
3358
3191
2911
2631
2401
2275
2215
2179
2117
2007
1874
1754
1694
1734
1851
1979
2063
2058
1967
1840
1756
1767
1859
1968
2047
2059
1982
1867
1776
1765
1844
1967
2067
2095
2033
1918
1810
1767
1818
1946
2083
2160
2131
2031
1909
1829
1839
1935
2064
2148
2150
2086
1959
1853
1825
1883
2001
2102
2135
2095
1973
1866
1826
1885
2002
2129
2192
2167
2071
1940
1861
1872
1971
2098
2181
2195
2126
2005
1927
1922
2004
2126
2222
2250
2198
2096
1986
1950
1994
2112
2222
2285
2256
2158
2032
1953
1974
2069
2193
2291
2301
2229
2111
2014
2003
2101
2234
2347
2386
2326
2201
2080
2015
2060
2161
2273
2331
2304
2203
2075
1985
1990
2078
2191
2263
2259
2179
2041
1929
1902
1968
2079
2163
2175
2106
1977
1856
1808
1856
1965
2079
2128
2098
2000
1892
1825
1849
1951
2081
2155
2144
2058
1933
1847
1851
1947
2091
2187
2207
2141
2031
1931
1903
1978
2115
2242
2306
2277
2163
2031
1952
1968
2089
2221
2303
2309
2224
2085
1981
1963
2043
2174
2275
2309
2251
2138
2033
1994
2053
2166
2265
2303
2271
2176
2061
1994
2030
2139
2255
2320
2303
2206
2079
1981
1968
2043
2160
2255
2275
2223
2110
2000
1975
2047
2171
2285
2333
2298
2183
2053
1979
2000
2111
2237
2311
2303
2210
2077
1963
1936
2000
2112
2195
2208
2145
2025
1918
1879
1947
2081
2198
2258
2234
2128
2003
1938
1967
2064
2173
2235
2225
2139
2005
1915
1915
2010
2155
2261
2299
2250
2146
2039
2007
2064
2162
2253
2271
2227
2121
1989
1923
1966
2075
2192
2259
2253
2162
2035
1952
1946
2019
2129
2212
2224
2160
2026
1907
1866
1925
2047
2169
2235
2215
2121
2003
1937
1963
2064
2179
2247
2230
2135
2005
1925
1926
2012
2151
2255
2279
2223
2110
2003
1984
2061
2192
2307
2351
2298
2179
2061
1996
2028
2129
2242
2311
2305
2224
2103
2018
2015
2096
2195
2267
2267
2198
2093
1997
1971
2035
2159
2256
2291
2255
2143
2021
1961
1983
2069
2170
2238
2233
2153
2035
1967
1979
2081
2205
2288
2287
2199
2064
1951
1919
1981
2086
2177
2212
2162
2058
1946
1905
1945
2062
2179
2255
2240
2143
2002
1906
1906
1997
2119
2197
2209
2125
1984
1859
1808
1859
1962
2064
2097
2032
1914
1797
1744
1787
1901
2020
2085
2046
1937
1797
1703
1712
1803
1919
1995
2000
1936
1817
1712
1681
1751
1872
1975
2010
1968
1855
1736
1677
1717
1822
1934
1986
1958
1869
1757
1724
1813
2019
2263
2486
2657
2739
2745
2736
2773
2886
3035
3163
3187
3067
2832
2546
2290
2128
2047
2009
1968
1872
1722
1580
1511
1559
1687
1840
1936
1953
1872
1747
1642
1614
1679
1789
1895
1939
1898
1778
1652
1593
1641
1755
1857
1904
1872
1772
1655
1587
1609
1712
1835
1925
1939
1869
1743
1639
1629
1711
1834
1936
1968
1904
1778
1659
1603
1645
1744
1840
1895
1868
1774
1653
1580
1602
1717
1862
1969
1991
1919
1804
1712
1698
1776
1899
2000
2062
2017
1906
1795
1753
1809
1939
2068
2134
2121
2032
1934
1874
1919
2037
2174
2263
2271
2197
2079
1989
1977
2054
2171
2268
2304
2265
2163
2064
2019
2065
2180
2304
2378
2369
2284
2174
2097
2105
2175
2267
2325
2315
2225
2098
1984
1959
2015
2112
2190
2191
2107
1965
1830
1763
1791
1883
1983
2035
2003
1891
1763
1675
1679
1750
1851
1904
1893
1808
1680
1586
1577
1652
1770
1868
1901
1845
1728
1615
1573
1626
1744
1856
1913
1886
1786
1663
1598
1630
1744
1870
1949
1951
1871
1745
1650
1646
1729
1854
1942
1965
1899
1771
1661
1619
1679
1790
1891
1936
1894
1786
1659
1587
1601
1703
1808
1879
1872
1782
1655
1557
1535
1622
1750
1855
1895
1836
1717
1600
1555
1617
1744
1862
1925
1897
1786
1666
1599
1618
1718
1837
1919
1919
1840
1727
1648
1661
1755
1883
1979
2000
1936
1815
1709
1669
1727
1839
1940
1995
1968
1867
1744
1678
1702
1802
1909
1973
1957
1847
1706
1602
1598
1701
1840
1942
1968
1880
1739
1627
1597
1651
1773
1886
1950
1925
1825
1711
1645
1669
1789
1915
1996
1986
1889
1754
1661
1666
1758
1883
1979
2004
1949
1842
1757
1742
1815
1936
2045
2091
2032
1917
1801
1740
1770
1869
1979
2054
2035
1947
1838
1750
1744
1827
1953
2047
2076
2007
1891
1783
1758
1827
1947
2059
2101
2061
1954
1840
1783
1823
1933
2042
2119
2114
2032
1921
1845
1856
1945
2064
2154
2171
2103
1979
1872
1843
1913
2032
2135
2167
2127
2020
1903
1823
1839
1926
2039
2128
2126
2039
1925
1847
1855
1937
2042
2145
2160
2093
1956
1842
1805
1852
1958
2063
2112
2088
1975
1866
1803
1831
1936
2042
2097
2068
1968
1843
1750
1770
1871
2003
2107
2125
2065
1943
1847
1817
1885
2000
2103
2147
2100
1979
1854
1776
1801
1912
2042
2126
2115
2030
1920
1843
1866
1968
2099
2190
2199
2126
1989
1876
1831
1889
2009
2119
2160
2125
2040
1975
1991
2131
2363
2625
2853
2995
3045
3039
3025
3071
3200
3344
3442
3420
3248
2962
2669
2432
2313
2259
2225
2167
2066
1932
1826
1809
1893
2032
2170
2240
2224
2127
2000
1920
1935
2031
2155
2231
2235
2159
2023
1919
1898
1969
2094
2195
2230
2181
2074
1959
1907
1953
2067
2181
2241
2219
2127
2007
1934
1945
2038
2155
2224
2218
2133
2019
1933
1911
1983
2101
2192
2220
2160
2034
1910
1858
1904
2019
2143
2199
2175
2079
1961
1887
1899
1993
2119
2197
2202
2129
2020
1937
1925
2001
2151
2278
2323
2288
2185
2085
2047
2112
2245
2370
2437
2426
2341
2237
2165
2183
2285
2407
2485
2491
2418
2304
2217
2210
2294
2411
2491
2498
2432
2310
2199
2154
2189
2288
2386
2437
2406
2290
2159
2064
2059
2131
2224
2283
2258
2154
2001
1893
1875
1951
2064
2151
2160
2095
1965
1847
1792
1830
1935
2035
2095
2045
1923
1787
1722
1744
1842
1967
2038
2031
1939
1834
1754
1758
1846
1968
2064
2091
2025
1903
1783
1728
1777
1898
2023
2096
2065
1967
1851
1792
1834
1934
2055
2123
2118
2027
1902
1809
1809
1899
2025
2112
2113
2035
1910
1789
1741
1792
1910
2032
2102
2081
1980
1862
1795
1829
1927
2032
2096
2077
1977
1842
1746
1747
1839
1958
2045
2069
1998
1874
1766
1715
1763
1869
1968
2017
1979
1873
1756
1691
1718
1824
1940
2010
1990
1898
1767
1669
1663
1751
1870
1968
1990
1935
1837
1744
1725
1792
1911
2023
2076
2043
1935
1813
1754
1799
1925
2064
2147
2134
2035
1905
1810
1813
1918
2067
2182
2213
2152
2033
1934
1909
1984
2110
2221
2263
2213
2091
1959
1897
1930
2041
2162
2229
2222
2126
2006
1931
1959
2067
2205
2294
2304
2235
2117
2011
1993
2075
2192
2304
2345
2293
2167
2044
1995
2037
2166
2299
2384
2381
2283
2155
2043
2032
2122
2240
2320
2350
2287
2171
2070
2045
2118
2236
2335
2383
2346
2241
2128
2070
2112
2217
2326
2391
2375
2283
2170
2103
2122
2223
2343
2436
2461
2387
2265
2160
2130
2207
2333
2438
2480
2433
2320
2192
2118
2143
2249
2354
2415
2399
2319
2207
2128
2141
2226
2336
2399
2387
2295
2149
2022
1995
2077
2214
2319
2352
2295
2179
2057
2000
2046
2161
2281
2347
2327
2233
2114
2041
2064
2162
2277
2353
2365
2299
2181
2092
2079
2156
2290
2398
2430
2375
2246
2114
2034
2064
2159
2256
2305
2261
2160
2047
2023
2125
2333
2589
2822
2993
3071
3083
3059
3099
3216
3376
3504
3511
3357
3071
2752
2478
2316
2251
2242
2239
2191
2102
1999
1951
1993
2105
2242
2342
2362
2299
2189
2093
2077
2160
2279
2376
2403
2352
2239
2125
2083
2137
2259
2371
2433
2410
2304
2182
2106
2127
2218
2327
2406
2399
2315
2205
2130
2139
2229
2352
2448
2470
2411
2288
2167
2119
2163
2277
2395
2448
2416
2320
2207
2149
2173
2271
2384
2467
2464
2384
2254
2146
2128
2199
2309
2399
2423
2365
2250
2139
2095
2144
2254
2367
2423
2391
2288
2178
2123
2160
2273
2415
2507
2530
2468
2355
2273
2271
2365
2486
2583
2607
2542
2429
2327
2304
2368
2482
2595
2640
2607
2511
2404
2334
2352
2451
2559
2630
2614
2509
2375
2284
2269
2333
2429
2489
2478
2384
2240
2100
2024
2061
2162
2256
2288
2233
2116
1991
1919
1923
2005
2112
2176
2159
2066
1940
1849
1845
1925
2041
2123
2127
2038
1906
1796
1762
1822
1937
2045
2096
2059
1939
1808
1730
1757
1865
1987
2063
2041
1942
1809
1712
1699
1777
1885
1966
1963
1878
1744
1622
1591
1665
1786
1902
1947
1910
1803
1680
1616
1648
1760
1875
1951
1944
1858
1731
1643
1637
1718
1843
1934
1948
1872
1745
1648
1616
1683
1801
1898
1936
1904
1810
1709
1653
1701
1825
1946
2007
1997
1908
1785
1701
1709
1791
1903
1978
1985
1922
1821
1721
1691
1762
1887
1999
2042
1999
1895
1787
1727
1755
1861
1973
2032
2006
1898
1760
1665
1669
1760
1877
1965
1968
1902
1781
1683
1659
1722
1832
1920
1953
1900
1787
1671
1615
1663
1782
1909
1987
1979
1885
1759
1653
1643
1739
1859
1959
1984
1920
1827
1737
1707
1767
1879
1983
2015
1974
1879
1778
1735
1776
1885
2002
2067
2061
1967
1849
1776
1797
1906
2040
2143
2163
2110
1991
1901
1877
1936
2055
2155
2192
2158
2043
1934
1875
1911
2008
2118
2183
2170
2079
1971
1904
1919
2010
2130
2218
2224
2153
2023
1925
1895
1965
2086
2178
2209
2159
2046
1936
1899
1943
2053
2160
2221
2209
2125
2005
1930
1946
2045
2179
2271
2283
2206
2074
1966
1941
2017
2138
2231
2256
2199
2096
1979
1938
1997
2117
2240
2306
2285
2191
2063
1971
1985
2095
2223
2318
2331
2257
2142
2045
2032
2116
2230
2322
2343
2287
2173
2055
1983
2015
2122
2230
2285
2250
2139
2014
1967
2037
2217
2439
2638
2785
2854
2871
2896
2960
3114
3301
3443
3477
3371
3148
2887
2659
2491
2400
2327
2245
2128
1971
1831
1767
1810
1937
2083
2178
2197
2133
2015
1924
1914
1991
2114
2199
2202
2121
1984
1861
1825
1884
2002
2112
2171
2157
2059
1934
1861
1890
2000
2129
2218
2222
2145
2023
1931
1936
2027
2147
2240
2256
2192
2064
1947
1905
1959
2071
2177
2235
2213
2120
1999
1936
1961
2065
2174
2240
2233
2148
2026
1926
1904
1984
2115
2224
2256
2194
2083
1970
1939
1997
2112
2211
2263
2247
2167
2069
2018
2062
2170
2283
2358
2353
2275
2160
2067
2063
2139
2259
2354
2384
2320
2199
2081
2023
2090
2203
2306
2352
2317
2215
2098
2025
2045
2151
2259
2326
2317
2231
2112
2010
1995
2067
2169
2231
2219
2129
2000
1902
1871
1918
2039
2143
2187
2134
2000
1879
1809
1830
1926
2030
2090
2079
1977
1856
1755
1729
1799
1919
2023
2064
2005
1898
1793
1765
1826
1943
2047
2098
2061
1937
1826
1761
1782
1883
1995
2062
2038
1947
1840
1762
1769
1865
1999
2103
2128
2064
1945
1849
1826
1895
2007
2112
2141
2093
1979
1863
1804
1834
1929
2038
2103
2081
1982
1877
1795
1807
1887
2015
2110
2118
2037
1914
1791
1769
1841
1957
2061
2096
2053
1942
1838
1781
1808
1917
2038
2129
2122
2023
1895
1810
1837
1937
2074
2169
2191
2128
2013
1923
1920
2000
2128
2235
2274
2231
2124
2007
1951
1987
2101
2215
2286
2269
2176
2061
1975
1987
2090
2206
2283
2287
2223
2106
2000
1983
2059
2171
2261
2288
2223
2093
1971
1921
1967
2079
2186
2238
2194
2087
1969
1899
1918
2011
2128
2209
2224
2159
2042
1947
1937
2015
2139
2237
2268
2211
2097
1981
1935
1973
2091
2207
2281
2278
2202
2096
2023
2042
2143
2262
2349
2358
2288
2176
2089
2066
2138
2255
2362
2402
2358
2254
2149
2111
2162
2282
2397
2461
2438
2338
2219
2151
2176
2272
2378
2444
2439
2358
2238
2141
2115
2183
2299
2391
2422
2366
2258
2154
2103
2148
2255
2364
2419
2394
2289
2159
2082
2107
2215
2343
2423
2417
2331
2203
2108
2091
2164
2288
2377
2395
2331
2214
2086
2019
2058
2149
2245
2299
2299
2255
2215
2240
2369
2597
2864
3099
3236
3235
3131
3034
3025
3115
3216
3253
3167
2926
2603
2287
2064
1967
1985
2043
2069
2039
1943
1830
1759
1795
1907
2037
2134
2149
2075
1958
1872
1845
1923
2035
2121
2143
2089
1975
1883
1853
1904
2001
2101
2151
2127
2015
1899
1838
1870
1984
2114
2191
2175
2101
1989
1905
1904
1979
2096
2176
2207
2159
2047
1933
1899
1950
2057
2146
2179
2143
2035
1933
1889
1931
2041
2167
2237
2224
2128
2000
1907
1905
1984
2113
2217
2250
2203
2095
1981
1935
1983
2100
2215
2261
2231
2118
2000
1950
1987
2111
2240
2323
2326
2251
2141
2062
2064
2160
2291
2391
2431
2387
2287
2181
2146
2212
2331
2443
2487
2438
2311
2176
2096
2102
2175
2256
2294
2256
2166
2032
1937
1918
1988
2096
2163
2161
2082
1931
1798
1744
1788
1893
1985
2025
1984
1873
1759
1703
1745
1853
1965
2032
2023
1946
1835
1755
1770
1873
2003
2112
2130
2074
1962
1865
1840
1904
2022
2141
2192
2151
2030
1897
1813
1839
1921
2007
2064
2041
1945
1827
1744
1759
1856
1974
2058
2060
1978
1859
1771
1756
1840
1977
2099
2142
2097
1984
1874
1817
1854
1958
2071
2130
2103
1999
1878
1783
1787
1872
1991
2085
2101
2031
1910
1804
1773
1826
1933
2032
2086
2035
1917
1789
1727
1759
1859
1962
2016
2003
1907
1777
1678
1661
1727
1830
1911
1922
1862
1747
1642
1599
1648
1753
1846
1874
1825
1701
1569
1488
1519
1635
1753
1808
1775
1663
1530
1435
1421
1503
1629
1719
1735
1664
1535
1428
1407
1484
1605
1703
1746
1710
1611
1509
1479
1535
1663
1778
1849
1827
1745
1635
1535
1535
1626
1722
1789
1777
1681
1535
1420
1391
1456
1589
1697
1742
1712
1613
1507
1469
1527
1647
1753
1806
1778
1687
1586
1521
1535
1645
1759
1845
1854
1776
1657
1561
1535
1611
1718
1803
1822
1769
1659
1535
1479
1518
1622
1718
1758
1708
1580
1435
1347
1371
1499
1683
1844
1936
1945
1929
1953
2064
2249
2429
2543
2577
2518
2391
2239
2093
1975
1877
1761
1603
1397
1171
969
848
857
972
1131
1246
1277
1229
1121
1021
1008
1084
1200
1305
1355
1315
1206
1088
1046
1104
1232
1356
1425
1403
1294
1168
1110
1157
1280
1421
1514
1517
1437
1306
1201
1194
1278
1397
1482
1489
1411
1280
1166
1119
1174
1307
1437
1491
1442
1329
1215
1152
1178
1285
1399
1472
1469
1390
1266
1184
1181
1271
1403
1503
1532
1461
1339
1227
1194
1269
1411
1535
1598
1555
1442
1314
1229
1241
1350
1485
1570
1574
1488
1367
1283
1290
1383
1521
1645
1674
1616
1507
1415
1397
1471
1593
1695
1739
1705
1608
1495
1439
1475
1589
1709
1777
1770
1680
1554
1467
1467
1535
1659
1749
1758
1687
1552
1424
1381
1422
1520
1602
1630
1573
1446
1329
1283
1321
1428
1561
1635
1642
1579
1470
1386
1382
1468
1588
1680
1699
1638
1516
1403
1371
1425
1535
1632
1675
1633
1520
1395
1334
1377
1500
1641
1719
1705
1604
1460
1373
1375
1459
1583
1666
1677
1600
1462
1354
1328
1404
1535
1663
1702
1648
1519
1385
1314
1341
1441
1555
1621
1607
1523
1410
1334
1331
1415
1533
1633
1665
1609
1489
1395
1373
1444
1570
1680
1711
1649
1535
1434
1393
1445
1556
1674
1730
1712
1607
1488
1424
1455
1568
1694
1782
1791
1713
1584
1465
1433
1499
1620
1727
1777
1745
1648
1535
1493
1558
1687
1809
1888
1876
1797
1686
1617
1637
1731
1851
1936
1949
1873
1744
1636
1600
1664
1786
1905
1957
1920
1810
1697
1637
1664
1774
1902
1983
1971
1872
1747
1663
1667
1757
1870
1951
1963
1879
1762
1663
1638
1715
1845
1961
2001
1951
1840
1729
1680
1733
1853
1984
2064
2064
1969
1840
1743
1728
1808
1923
2001
1996
1906
1767
1660
1641
1728
1885
2060
2192
2267
2302
2337
2431
2615
2839
3041
3159
3171
3102
2970
2847
2751
2685
2603
2459
2282
2065
1847
1686
1650
1728
1859
1978
2026
1991
1891
1777
1712
1741
1841
1947
1998
1979
1901
1796
1729
1744
1839
1948
2036
2045
1966
1844
1753
1733
1797
1904
1981
2012
1984
1890
1792
1753
1808
1926
2047
2119
2105
2007
1910
1857
1888
1993
2116
2191
2177
2089
1957
1854
1840
1934
2078
2197
2254
2221
2123
2015
1969
2021
2142
2258
2317
2289
2187
2064
1978
1993
2107
2245
2349
2382
2331
2239
2158
2145
2215
2325
2416
2445
2384
2265
2161
2128
2192
2317
2439
2502
2477
2364
2230
2146
2138
2210
2306
2369
2358
2267
2146
2043
2023
2096
2206
2295
2311
2246
2117
1987
1926
1956
2058
2145
2177
2121
1994
1855
1769
1760
1836
1942
2002
1975
1869
1729
1622
1600
1680
1810
1910
1938
1873
1765
1669
1648
1714
1844
1959
2005
1970
1885
1789
1744
1784
1894
2000
2084
2075
1987
1870
1776
1776
1863
1990
2082
2109
2047
1938
1831
1791
1843
1959
2077
2127
2093
1978
1854
1779
1805
1904
2015
2091
2067
1968
1825
1712
1685
1751
1858
1936
1937
1867
1757
1670
1651
1727
1851
1967
2005
1969
1863
1749
1689
1719
1811
1903
1954
1941
1864
1749
1666
1663
1744
1866
1966
1990
1927
1808
1712
1680
1738
1845
1935
1959
1910
1815
1712
1663
1703
1811
1929
1995
1984
1886
1758
1667
1671
1760
1873
1956
1959
1877
1741
1617
1584
1645
1762
1863
1913
1877
1775
1649
1581
1605
1703
1809
1870
1842
1729
1586
1483
1475
1565
1674
1749
1758
1703
1611
1524
1518
1600
1713
1814
1851
1815
1715
1609
1552
1588
1697
1826
1904
1915
1845
1731
1648
1639
1717
1829
1905
1919
1847
1734
1629
1585
1638
1734
1815
1839
1788
1690
1621
1636
1760
1981
2231
2441
2559
2611
2559
2535
2559
2699
2838
2922
2880
2703
2415
2111
1878
1776
1759
1776
1759
1680
1570
1456
1417
1479
1622
1777
1874
1885
1811
1709
1626
1634
1726
1850
1942
1945
1872
1748
1648
1618
1679
1795
1904
1945
1911
1797
1675
1632
1693
1822
1955
2046
2062
1974
1871
1805
1821
1913
2041
2141
2160
2093
1985
1907
1903
1984
2112
2213
2250
2202
2096
1969
1914
1947
2068
2192
2256
2234
2142
2025
1949
1968
2066
2189
2276
2289
2226
2118
2019
2000
2070
2194
2304
2333
2283
2167
2041
1989
2039
2160
2283
2346
2330
2247
2149
2085
2111
2213
2334
2416
2424
2342
2224
2112
2097
2172
2283
2373
2407
2355
2233
2107
2027
2058
2151
2249
2294
2245
2128
1983
1887
1877
1951
2053
2116
2115
2039
1925
1833
1814
1889
2000
2087
2097
2015
1890
1776
1728
1776
1897
2015
2092
2070
1969
1860
1783
1794
1877
1983
2069
2083
2000
1887
1799
1790
1855
1952
2035
2066
2015
1915
1818
1777
1835
1941
2034
2085
2032
1929
1818
1760
1792
1904
2022
2103
2094
1989
1858
1771
1763
1851
1978
2082
2113
2065
1945
1840
1785
1835
1959
2082
2128
2096
1994
1879
1821
1847
1954
2081
2171
2192
2131
2022
1939
1948
2032
2148
2233
2246
2185
2066
1939
1902
1952
2067
2175
2229
2204
2103
1975
1905
1931
2031
2158
2235
2235
2158
2038
1940
1921
1987
2093
2174
2185
2115
2001
1907
1899
1969
2102
2219
2274
2234
2114
1979
1903
1935
2036
2147
2213
2195
2110
1988
1909
1914
2017
2159
2254
2271
2203
2085
1975
1935
1983
2098
2200
2255
2224
2129
2026
1974
2007
2121
2240
2301
2294
2207
2093
2005
2015
2114
2239
2331
2357
2318
2219
2112
2079
2144
2274
2384
2431
2387
2278
2159
2085
2096
2186
2295
2362
2355
2271
2150
2042
2013
2085
2188
2269
2298
2269
2198
2166
2224
2404
2673
2950
3168
3253
3201
3113
3070
3126
3247
3359
3367
3231
2961
2653
2369
2203
2163
2208
2275
2295
2231
2125
2029
2000
2065
2176
2274
2310
2270
2167
2064
2007
2042
2146
2249
2315
2303
2212
2096
2006
2003
2096
2205
2281
2291
2231
2112
2003
1975
2032
2130
2220
2255
2208
2101
1985
1936
1981
2096
2215
2275
2245
2146
2013
1931
1937
2032
2150
2229
2242
2181
2069
1968
1936
2011
2141
2257
2310
2291
2210
2126
2097
2151
2272
2405
2483
2480
2401
2293
2218
2238
2347
2478
2559
2597
2537
2429
2319
2278
2333
2436
2544
2598
2549
2433
2304
2224
2253
2358
2462
2517
2491
2384
2262
2177
2179
2262
2368
2427
2415
2333
2206
2095
2055
2112
2215
2299
2319
2251
2123
1986
1904
1906
1987
2093
2160
2139
2038
1911
1827
1837
1920
2032
2121
2138
2064
1943
1853
1834
1906
2030
2133
2166
2116
1985
1856
1795
1832
1933
2042
2110
2090
1989
1874
1809
1843
1961
2096
2190
2199
2123
1990
1888
1861
1935
2054
2146
2176
2119
1999
1883
1840
1899
2014
2130
2182
2160
2058
1936
1863
1883
1970
2091
2173
2182
2126
2017
1936
1921
1990
2102
2190
2219
2160
2042
1929
1873
1908
1989
2079
2112
2091
2000
1898
1837
1856
1949
2047
2115
2106
2003
1871
1756
1717
1778
1878
1974
2017
1971
1866
1759
1712
1760
1872
1984
2032
2001
1906
1799
1737
1759
1858
1975
2055
2043
1955
1829
1728
1711
1787
1900
1988
2015
1951
1815
1687
1629
1661
1751
1847
1899
1862
1767
1648
1585
1618
1735
1857
1920
1910
1838
1715
1635
1631
1721
1854
1961
1985
1926
1815
1718
1692
1743
1850
1951
1993
1950
1838
1713
1638
1665
1764
1877
1948
1947
1877
1775
1705
1719
1815
1950
2054
2086
2029
1913
1799
1766
1822
1937
2054
2114
2093
1990
1870
1793
1822
1926
2057
2146
2155
2067
1937
1840
1823
1895
2007
2103
2134
2086
1965
1852
1808
1859
1959
2064
2099
2047
1936
1813
1750
1788
1893
2019
2099
2096
2023
1905
1806
1793
1879
2000
2094
2112
2047
1938
1842
1818
1867
1956
2033
2064
1998
1873
1744
1695
1787
1969
2191
2374
2491
2539
2543
2559
2655
2796
2951
3086
3114
3030
2862
2653
2465
2321
2234
2161
2062
1903
1726
1582
1507
1555
1681
1819
1901
1882
1779
1659
1574
1582
1675
1808
1910
1937
1875
1765
1677
1664
1739
1851
1940
1969
1918
1805
1673
1600
1620
1715
1819
1872
1846
1746
1619
1535
1535
1648
1775
1866
1877
1797
1679
1582
1558
1631
1757
1855
1898
1855
1747
1632
1584
1622
1734
1839
1887
1867
1763
1636
1552
1559
1652
1777
1867
1885
1829
1715
1614
1581
1635
1755
1869
1919
1883
1789
1680
1621
1664
1783
1909
1983
1968
1874
1754
1675
1691
1795
1917
1995
2001
1936
1818
1712
1679
1746
1876
1991
2031
1982
1863
1742
1675
1711
1808
1919
1968
1937
1823
1680
1586
1600
1702
1822
1904
1903
1806
1663
1535
1488
1535
1648
1744
1776
1719
1595
1459
1396
1456
1579
1679
1717
1680
1575
1451
1373
1391
1488
1615
1710
1725
1665
1552
1449
1423
1489
1619
1723
1769
1729
1622
1510
1463
1515
1638
1760
1828
1808
1719
1610
1530
1535
1645
1770
1852
1861
1787
1664
1565
1535
1615
1725
1819
1870
1862
1775
1675
1631
1700
1826
1955
2021
1995
1899
1776
1702
1715
1830
1956
2035
2046
1981
1872
1791
1776
1853
1972
2076
2100
2042
1930
1822
1774
1812
1919
2026
2090
2070
1985
1874
1799
1815
1915
2029
2112
2117
2047
1937
1853
1841
1920
2034
2125
2141
2078
1953
1840
1789
1835
1947
2059
2096
2057
1947
1833
1775
1799
1916
2039
2124
2112
2017
1885
1776
1759
1815
1920
2013
2038
1984
1872
1762
1720
1770
1876
1984
2041
2011
1902
1776
1693
1703
1796
1919
1994
1987
1906
1780
1681
1661
1721
1823
1908
1951
1893
1793
1707
1674
1730
1841
1943
1984
1936
1818
1681
1604
1620
1724
1842
1917
1917
1834
1705
1602
1586
1657
1775
1866
1893
1835
1721
1614
1558
1608
1739
1862
1925
1911
1823
1713
1648
1669
1765
1872
1935
1926
1845
1737
1663
1671
1765
1891
1983
2003
1937
1809
1700
1661
1712
1824
1943
2013
1984
1879
1759
1689
1710
1809
1929
2010
2015
1937
1829
1749
1753
1840
1962
2064
2102
2047
1940
1831
1787
1840
1957
2067
2112
2074
1955
1830
1745
1767
1878
2010
2086
2064
1961
1821
1730
1728
1808
1922
2007
2026
1974
1862
1753
1695
1733
1829
1925
1978
1947
1849
1727
1655
1689
1798
1914
1983
1974
1886
1749
1648
1632
1705
1805
1862
1856
1776
1644
1507
1459
1520
1655
1792
1901
1942
1947
1964
2055
2256
2517
2769
2935
2986
2931
2832
2736
2688
2688
2672
2582
2403
2168
1907
1697
1595
1621
1729
1851
1919
1906
1837
1747
1728
1791
1910
2028
2096
2078
1968
1837
1746
1753
1850
1979
2096
2131
2087
1973
1872
1834
1891
2000
2114
2165
2125
2010
1891
1836
1864
1973
2096
2159
2151
2064
1936
1847
1844
1935
2055
2145
2160
2093
1969
1859
1821
1872
1973
2069
2103
2061
1939
1810
1743
1771
1867
1977
2036
2010
1904
1763
1655
1636
1712
1828
1934
1967
1918
1811
1713
1680
1739
1850
1963
2006
1975
1875
1765
1714
1763
1873
1985
2047
2032
1937
1821
1743
1755
1858
1983
2076
2091
2013
1889
1785
1769
1851
1974
2083
2119
2082
1965
1849
1789
1808
1901
1991
2035
1993
1899
1792
1725
1733
1838
1961
2038
2039
1958
1821
1698
1664
1728
1840
1936
1966
1910
1787
1661
1598
1629
1727
1831
1879
1859
1765
1647
1559
1562
1655
1776
1857
1867
1803
1691
1602
1585
1654
1771
1872
1924
1895
1796
1691
1648
1683
1792
1902
1953
1915
1803
1680
1615
1627
1722
1843
1935
1950
1885
1776
1686
1672
1738
1851
1946
1975
1925
1823
1714
1677
1723
1837
1945
2009
1994
1904
1792
1718
1727
1829
1952
2039
2064
1989
1867
1767
1741
1808
1925
2031
2075
2026
1911
1798
1765
1818
1939
2073
2157
2160
2093
1967
1882
1899
1999
2122
2211
2228
2160
2038
1942
1936
2013
2138
2225
2250
2190
2067
1954
1911
1975
2101
2224
2288
2263
2160
2029
1948
1955
2039
2155
2229
2234
2154
2038
1946
1925
1985
2096
2177
2199
2140
2013
1906
1869
1915
2019
2128
2181
2158
2047
1921
1846
1860
1954
2070
2134
2128
2047
1936
1850
1840
1909
2025
2125
2153
2094
1957
1824
1771
1811
1929
2047
2113
2091
1987
1868
1786
1808
1921
2039
2128
2124
2033
1905
1809
1810
1889
1999
2091
2109
2035
1919
1796
1745
1804
1919
2027
2077
2041
1933
1808
1734
1744
1840
1953
2026
2039
1953
1847
1762
1757
1840
1964
2064
2096
2043
1935
1822
1798
1853
1966
2091
2158
2129
2032
1920
1856
1883
1994
2123
2214
2229
2159
2035
1947
1943
2025
2146
2228
2239
2165
2055
1944
1904
1959
2065
2159
2198
2159
2041
1910
1842
1874
1983
2111
2186
2177
2106
1994
1913
1919
2015
2155
2265
2309
2261
2162
2064
2029
2099
2223
2335
2383
2351
2241
2121
2043
2081
2187
2303
2381
2383
2315
2205
2112
2110
2181
2287
2375
2403
2347
2240
2147
2114
2174
2290
2388
2432
2385
2267
2131
2054
2073
2170
2288
2352
2339
2259
2135
2041
2037
2128
2246
2327
2341
2259
2121
1991
1949
2002
2121
2238
2313
2340
2326
2328
2403
2581
2834
3113
3328
3418
3381
3298
3243
3257
3328
3379
3351
3215
2944
2626
2352
2176
2131
2184
2265
2319
2306
2224
2132
2106
2159
2281
2411
2485
2486
2399
2285
2195
2191
2273
2391
2468
2466
2386
2269
2169
2141
2207
2322
2434
2482
2450
2348
2233
2176
2198
2283
2375
2419
2401
2314
2204
2128
2138
2239
2362
2448
2467
2398
2282
2181
2155
2209
2336
2446
2496
2457
2351
2238
2192
2250
2383
2509
2587
2559
2478
2359
2290
2315
2417
2548
2653
2670
2601
2477
2371
2345
2416
2543
2663
2724
2695
2612
2522
2477
2518
2624
2731
2788
2770
2685
2555
2460
2460
2539
2657
2743
2762
2689
2559
2455
2431
2496
2619
2704
2736
2683
2559
2448
2384
2415
2509
2603
2649
2609
2483
2330
2219
2203
2281
2380
2447
2429
2331
2208
2114
2096
2160
2266
2355
2379
2319
2192
2070
2011
2054
2160
2275
2325
2303
2192
2061
1963
1955
2044
2160
2227
2219
2129
1994
1888
1861
1935
2064
2167
2203
2156
2043
1938
1902
1950
2068
2191
2255
2239
2136
2000
1909
1908
1995
2128
2234
2270
2224
2127
2035
2015
2082
2190
2283
2313
2263
2160
2054
2000
2041
2151
2249
2299
2263
2159
2026
1937
1939
2018
2119
2182
2187
2113
2000
1911
1901
1981
2103
2191
2218
2167
2064
1961
1915
1952
2054
2133
2167
2122
2017
1904
1834
1847
1938
2064
2155
2166
2096
1984
1899
1899
1982
2112
2205
2220
2160
2054
1937
1879
1921
2014
2114
2159
2125
2014
1886
1801
1808
1889
2000
2069
2055
1965
1834
1734
1730
1814
1947
2059
2095
2032
1914
1803
1756
1812
1930
2047
2105
2067
1965
1841
1775
1786
1877
1994
2066
2059
1966
1830
1715
1683
1749
1863
1949
1967
1898
1777
1666
1627
1688
1808
1915
1971
1945
1843
1726
1642
1662
1759
1879
1955
1951
1872
1767
1680
1664
1732
1839
1906
1909
1837
1699
1591
1535
1601
1715
1821
1874
1840
1723
1587
1498
1515
1621
1735
1811
1813
1731
1614
1517
1488
1553
1655
1734
1748
1680
1535
1429
1389
1431
1535
1678
1715
1678
1565
1443
1379
1418
1532
1661
1741
1745
1674
1558
1466
1447
1523
1653
1755
1779
1719
1599
1469
1421
1468
1584
1710
1783
1759
1654
1523
1456
1473
1568
1675
1744
1734
1648
1522
1431
1423
1507
1623
1707
1727
1666
1535
1412
1375
1424
1535
1650
1696
1659
1552
1429
1367
1398
1507
1631
1712
1703
1622
1503
1424
1425
1520
1642
1729
1750
1695
1584
1473
1441
1513
1649
1767
1825
1791
1686
1573
1505
1535
1658
1789
1878
1903
1834
1719
1631
1623
1698
1793
1872
1882
1806
1680
1566
1519
1562
1670
1783
1837
1808
1725
1620
1573
1601
1713
1849
1933
1930
1843
1719
1639
1653
1755
1884
1984
2015
1957
1846
1737
1697
1749
1873
2000
2073
2062
1991
1949
2002
2181
2444
2736
2982
3147
3202
3179
3170
3231
3360
3490
3545
3449
3201
2871
2549
2314
2204
2196
2223
2225
2170
2066
1971
1943
2002
2128
2253
2328
2321
2237
2121
2030
2017
2101
2218
2310
2337
2283
2176
2087
2065
2127
2225
2311
2345
2301
2193
2083
2025
2063
2162
2284
2361
2351
2259
2149
2065
2064
2154
2279
2370
2389
2320
2220
2121
2107
2181
2298
2395
2437
2406
2295
2163
2096
2118
2212
2320
2382
2368
2274
2159
2087
2113
2211
2337
2423
2439
2377
2266
2182
2181
2267
2397
2496
2527
2480
2371
2263
2211
2247
2346
2447
2512
2511
2433
2318
2239
2239
2336
2451
2540
2556
2495
2390
2307
2288
2354
2475
2589
2646
2614
2499
2389
2338
2366
2452
2547
2595
2533
2409
2262
2161
2158
2237
2351
2433
2444
2363
2225
2098
2039
2086
2177
2276
2304
2256
2149
2023
1959
1987
2087
2176
2215
2181
2083
1954
1872
1873
1941
2035
2103
2101
2019
1893
1791
1761
1829
1937
2030
2055
1993
1874
1760
1707
1731
1827
1915
1967
1931
1829
1706
1626
1643
1728
1846
1942
1968
1910
1807
1714
1685
1753
1865
1944
1968
1911
1805
1691
1630
1648
1728
1811
1855
1823
1721
1596
1514
1530
1641
1759
1840
1840
1763
1646
1552
1535
1605
1709
1794
1827
1775
1655
1535
1494
1535
1665
1781
1851
1826
1728
1595
1491
1481
1554
1660
1730
1738
1665
1535
1451
1433
1505
1622
1715
1734
1680
1573
1469
1440
1520
1649
1769
1839
1822
1734
1627
1567
1588
1687
1797
1872
1887
1808
1680
1583
1535
1619
1753
1866
1903
1853
1745
1651
1616
1661
1774
1870
1922
1899
1798
1680
1602
1613
1698
1807
1891
1909
1852
1745
1662
1649
1721
1837
1925
1954
1904
1794
1688
1648
1707
1825
1935
1984
1968
1877
1773
1712
1739
1840
1950
2023
2026
1946
1834
1728
1700
1769
1867
1935
1936
1856
1727
1600
1535
1584
1680
1776
1821
1782
1676
1558
1483
1510
1619
1745
1817
1808
1711
1580
1466
1442
1522
1664
1781
1817
1770
1657
1535
1495
1535
1660
1777
1840
1825
1751
1655
1603
1642
1748
1873
1967
1979
1906
1795
1712
1711
1787
1905
2007
2042
1990
1879
1783
1749
1799
1909
2010
2064
2031
1930
1818
1767
1799
1899
2006
2079
2067
1982
1860
1780
1795
1888
2005
2098
2115
2064
1958
1871
1846
1902
2000
2098
2140
2105
2000
1890
1829
1872
1983
2097
2160
2144
2062
1953
1885
1897
1978
2082
2159
2160
2091
1966
1858
1821
1871
1963
2046
2085
2039
1940
1829
1773
1808
1911
2032
2101
2091
2001
1899
1834
1847
1936
2055
2139
2156
2099
1968
1851
1810
1872
1983
2084
2128
2090
1971
1856
1791
1813
1901
1985
2039
2006
1903
1766
1667
1680
1806
1986
2176
2311
2394
2432
2482
2590
2741
2902
3047
3125
3090
2946
2757
2559
2418
2311
2222
2106
1942
1750
1563
1434
1424
1508
1642
1744
1786
1744
1651
1568
1535
1603
1714
1813
1862
1829
1722
1615
1563
1601
1712
1825
1894
1877
1791
1669
1585
1583
1657
1776
1866
1883
1822
1702
1599
1569
1626
1729
1809
1840
1803
1712
1613
1577
1623
1735
1861
1937
1936
1867
1750
1668
1665
1747
1877
1987
2029
1984
1877
1791
1787
1866
1977
2083
2117
2064
1956
1846
1786
1811
1909
2011
2085
2074
1984
1865
1769
1749
1820
1931
2018
2053
1997
1891
1807
1801
1873
2000
2110
2146
2108
1999
1891
1840
1878
1975
2079
2141
2134
2062
1949
1879
1893
1981
2096
2176
2189
2121
2000
1889
1847
1897
1995
2081
2105
2032
1914
1791
1725
1744
1826
1915
1963
1925
1818
1687
1611
1627
1713
1823
1904
1909
1840
1716
1613
1581
1633
1730
1812
1840
1779
1664
1557
1510
1564
1676
