1779
1697
1489
1283
1187
1250
1449
1664
1791
1762
1598
1388
1261
1291
1438
1623
1771
1789
1676
1477
1299
1264
1379
1599
1806
1877
1790
1571
1346
1244
1310
1504
1726
1860
1847
1665
1439
1279
1276
1424
1619
1761
1776
1658
1469
1340
1363
1569
1881
2209
2459
2559
2535
2468
2458
2606
2869
3147
3269
3147
2793
2338
1930
1698
1647
1682
1728
1693
1535
1313
1126
1094
1221
1433
1627
1709
1648
1462
1267
1168
1248
1467
1699
1833
1838
1685
1477
1331
1333
1479
1682
1857
1925
1854
1665
1481
1419
1514
1726
1927
2020
1945
1734
1514
1405
1456
1631
1796
1861
1777
1535
1261
1045
985
1099
1273
1409
1439
1328
1126
928
870
976
1191
1399
1514
1459
1287
1102
999
1070
1248
1466
1619
1622
1475
1267
1105
1088
1232
1471
1680
1743
1648
1436
1232
1158
1263
1472
1686
1783
1719
1511
1296
1191
1242
1439
1667
1809
1810
1654
1431
1281
1270
1410
1630
1811
1869
1757
1535
1338
1270
1362
1565
1744
1823
1751
1535
1319
1191
1232
1423
1666
1825
1810
1647
1424
1257
1237
1369
1597
1789
1851
1753
1535
1347
1282
1390
1605
1802
1883
1815
1629
1415
1302
1359
1535
1741
1858
1858
1725
1535
1406
1408
1570
1777
1950
2000
1887
1674
1475
1411
1505
1702
1894
1991
1937
1747
1527
1407
1456
1648
1853
1986
1984
1821
1580
1390
1366
1494
1691
1840
1873
1775
1567
1360
1274
1353
1535
1738
1850
1822
1652
1443
1340
1386
1553
1757
1897
1897
1743
1523
1367
1346
1479
1682
1841
1872
1745
1522
1319
1249
1358
1585
1824
1992
2030
1958
1895
1936
2147
2454
2763
2990
3069
2977
2774
2554
2414
2359
2329
2269
2116
1856
1535
1297
1189
1261
1459
1682
1825
1808
1651
1460
1330
1357
1481
1629
1728
1712
1535
1315
1154
1153
1299
1531
1755
1885
1890
1765
1638
1610
1725
1921
2135
2275
2273
2112
1892
1744
1761
1923
2163
2352
2399
2289
2074
1880
1840
1965
2173
2327
2371
2274
2063
1857
1782
1860
2033
2247
2352
2321
2157
1949
1811
1834
1997
2201
2343
2366
2234
2016
1854
1853
1994
2203
2389
2465
2386
2198
1990
1886
1959
2157
2347
2448
2391
2190
1951
1798
1798
1948
2141
2268
2262
2102
1861
1667
1632
1749
1938
2117
2151
2047
1844
1646
1556
1621
1791
1954
2064
2043
1883
1679
1552
1585
1749
1950
2079
2086
1938
1723
1558
1534
1681
1904
2107
2187
2112
1899
1685
1589
1658
1836
2018
2127
2096
1915
1697
1561
1584
1745
1954
2109
2133
2011
1791
1590
1511
1587
1729
1855
1902
1818
1610
1392
1284
1351
1558
1767
1872
1839
1648
1406
1241
1232
1375
1571
1711
1705
1535
1296
1059
949
1021
1198
1359
1415
1326
1123
927
816
838
976
1143
1245
1203
1021
816
665
655
816
1047
1241
1293
1166
923
718
666
755
931
1100
1170
1113
947
784
734
857
1132
1441
1705
1833
1812
1725
1661
1738
1939
2186
2355
2384
2197
1847
1469
1221
1150
1214
1307
1329
1232
1040
826
747
837
1074
1327
1475
1471
1312
1083
944
988
1168
1394
1584
1645
1535
1331
1158
1098
1196
1408
1622
1727
1680
1489
1282
1185
1247
1440
1664
1822
1823
1687
1479
1330
1344
1520
1744
1903
1929
1818
1626
1446
1409
1520
1738
1946
2047
2005
1841
1668
1595
1665
1849
2032
2156
2161
2029
1830
1676
1674
1822
2032
2198
2243
2159
1967
1799
1749
1859
2047
2241
2343
2284
2091
1860
1743
1812
2016
2233
2352
2335
2179
1965
1808
1791
1919
2117
2277
2313
2212
2007
1821
1746
1820
2000
2205
2317
2279
2106
1904
1791
1856
2057
2257
2384
2383
2239
2019
1853
1840
1979
2205
2411
2474
2363
2151
1939
1863
1968
2191
2401
2503
2432
2209
1969
1850
1903
2108
2343
2498
2512
2372
2159
1981
1964
2106
2321
2507
2559
2463
2246
2062
2016
2135
2334
2512
2593
2528
2352
2161
2064
2118
2287
2483
2624
2609
2451
2235
2047
2000
2128
2342
2512
2602
2491
2297
2127
2090
2203
2402
2582
2640
2543
2336
2115
1997
2032
2211
2409
2537
2549
2427
2241
2112
2127
2267
2447
2582
2603
2479
2267
2102
2071
2172
2377
2608
2758
2782
2669
2534
2523
2685
2980
3295
3542
3647
3522
3319
3154
3094
3126
3165
3136
2992
2721
2378
2087
1943
2000
2193
2379
2481
2466
2318
2122
1999
2031
2223
2439
2606
2655
2549
2351
2193
2179
2299
2485
2665
2725
2623
2425
2251
2201
2319
2540
2752
2850
2800
2623
2415
2327
2447
2723
3043
3292
3379
3282
3095
2953
2935
3047
3237
3404
3450
3329
3099
2881
2800
2890
3094
3301
3419
3377
3182
2955
2829
2835
2989
3207
3379
3394
3249
3019
2846
2807
2926
3139
3332
3401
3266
3007
2768
2673
2747
2946
3151
3248
3177
2950
2706
2540
2534
2681
2871
3018
3034
2885
2656
2469
2421
2519
2689
2839
2886
2797
2602
2403
2310
2383
2549
2734
2827
2768
2582
2352
2210
2222
2357
2528
2656
2671
2533
2320
2150
2117
2230
2416
2559
2618
2513
2302
2105
2018
2080
2252
2421
2535
2518
2363
2150
1997
2001
2161
2356
2479
2464
2303
2082
1894
1843
1955
2153
2323
2398
2327
2139
1935
1842
1905
2087
2278
2385
2351
2160
1931
1775
1767
1920
2121
2254
2256
2122
1922
1767
1739
1856
2032
2188
2245
2157
1955
1774
1681
1743
1915
2099
2193
2167
2001
1787
1642
1653
1808
2017
2177
2192
2046
1807
1626
1611
1728
1952
2155
2238
2162
1942
1717
1614
1663
1831
2003
2111
2087
1943
1803
1757
1866
2133
2478
2777
2950
2948
2838
2746
2765
2917
3119
3249
3204
2931
2502
2080
1783
1709
1806
1958
2045
2019
1867
1666
1555
1596
1763
1962
2109
2125
2015
1803
1645
1630
1765
1984
2169
2243
2176
1982
1779
1680
1744
1947
2167
2287
2258
2099
1895
1743
1735
1887
2114
2294
2341
2224
2000
1803
1743
1852
2047
2225
2304
2237
2041
1831
1712
1751
1920
2113
2232
2217
2064
1866
1740
1751
1898
2082
2217
2240
2128
1919
1721
1673
1794
1993
2178
2249
2171
1971
1775
1667
1734
1919
2109
2223
2190
2021
1795
1625
1600
1719
1910
2073
2107
1974
1743
1531
1445
1520
1711
1898
1995
1924
1725
1516
1408
1442
1612
1810
1941
1923
1744
1504
1340
1329
1469
1678
1847
1879
1769
1558
1355
1299
1392
1589
1788
1873
1823
1637
1413
1283
1309
1479
1679
1807
1805
1657
1443
1296
1292
1426
1633
1781
1782
1613
1322
1043
891
911
1087
1275
1374
1306
1098
868
754
811
983
1200
1347
1360
1220
990
819
795
931
1139
1330
1399
1298
1090
895
822
921
1133
1347
1474
1438
1252
1041
932
956
1115
1303
1420
1393
1231
1006
858
846
978
1194
1365
1412
1305
1098
900
848
969
1195
1409
1517
1458
1259
1040
914
948
1113
1303
1423
1425
1297
1114
962
963
1106
1314
1476
1515
1395
1189
1007
973
1151
1469
1811
2071
2176
2137
2042
2015
2136
2362
2602
2723
2637
2335
1895
1461
1200
1127
1183
1265
1259
1151
944
765
710
830
1055
1268
1387
1344
1168
976
882
949
1136
1358
1504
1519
1377
1166
988
955
1079
1288
1490
1595
1519
1318
1126
1057
1146
1359
1584
1707
1693
1524
1319
1194
1227
1411
1643
1807
1826
1682
1456
1289
1279
1439
1669
1856
1926
1841
1646
1458
1393
1487
1699
1913
2032
2000
1814
1600
1472
1520
1728
1968
2143
2175
2035
1812
1631
1593
1727
1937
2135
2214
2128
1936
1744
1660
1725
1889
2070
2175
2145
1989
1793
1680
1710
1855
2039
2182
2189
2043
1815
1616
1556
1662
1851
2031
2102
2000
1779
1588
1519
1622
1826
2039
2160
2128
1958
1744
1614
1653
1829
2046
2195
2209
2054
1820
1647
1631
1757
1963
2160
2245
2174
1980
1767
1657
1706
1882
2095
2230
2221
2065
1861
1743
1762
1911
2110
2241
2254
2122
1915
1757
1755
1885
2091
2256
2307
2226
2031
1841
1763
1835
2011
2211
2339
2327
2173
1967
1842
1871
2043
2275
2445
2461
2315
2091
1878
1807
1895
2090
2261
2337
2271
2082
1877
1783
1868
2075
2288
2416
2391
2224
1987
1826
1810
1946
2135
2289
2314
2203
1991
1821
1776
1886
2086
2263
2343
2266
2092
1904
1815
1872
2043
2236
2338
2297
2099
1857
1750
1823
2074
2395
2697
2901
2975
2943
2911
2985
3210
3541
3914
4093
3920
3459
2976
2559
2320
2251
2252
2223
2099
1890
1685
1558
1579
1739
1952
2135
2206
2123
1936
1767
1712
1806
1996
2182
2262
2204
2011
1802
1684
1771
1971
2181
2306
2286
2125
1913
1766
1775
1933
2149
2316
2342
2224
2013
1847
1797
1904
2102
2288
2375
2313
2121
1914
1823
1899
2117
2356
2512
2530
2402
2219
2096
2118
2295
2537
2737
2819
2736
2542
2347
2253
2352
2544
2752
2867
2821
2637
2425
2320
2371
2544
2742
2859
2825
2644
2416
2247
2224
2336
2517
2675
2704
2578
2342
2123
2029
2095
2257
2431
2519
2462
2260
2045
1921
1961
2132
2343
2479
2457
2299
2078
1898
1861
1973
2160
2295
2323
2224
2010
1815
1760
1863
2062
2244
2338
2278
2083
1871
1769
1818
1990
2181
2308
2319
2173
1957
1797
1773
1900
2095
2241
2288
2178
1970
1767
1701
1789
1969
2167
2276
2242
2062
1846
1714
1747
1925
2133
2267
2263
2112
1890
1746
1747
1882
2083
2251
2304
2217
2027
1845
1778
1869
2064
2256
2352
2304
2112
1889
1766
1820
2009
2226
2373
2374
2231
2041
1909
1904
2042
2239
2401
2453
2371
2181
1995
1906
1964
2145
2339
2450
2416
2240
2023
1887
1906
2063
2254
2394
2412
2263
2057
1894
1872
1995
2195
2355
2393
2276
2064
1856
1793
1901
2128
2399
2598
2673
2639
2596
2642
2851
3179
3552
3931
4082
3920
3559
3253
3050
2933
2835
2709
2502
2223
1891
1616
1502
1594
1808
2034
2176
2160
2000
1808
1697
1735
1898
2107
2258
2284
2157
1936
1746
1697
1814
2010
2191
2255
2192
2006
1815
1747
1842
2032
2220
2313
2259
2066
1840
1711
1743
1915
2131
2294
2314
2199
2004
1847
1829
1959
2156
2309
2357
2243
2031
1837
1745
1820
2006
2217
2323
2288
2103
1885
1755
1799
1983
2211
2365
2382
2253
2061
1904
1883
2000
2192
2361
2431
2353
2151
1935
1829
1879
2069
2278
2404
2384
2208
1978
1829
1839
1975
2173
2302
2307
2167
1936
1753
1718
1842
2038
2224
2286
2192
1975
1749
1649
1718
1904
2094
2198
2162
1999
1786
1625
1616
1755
1946
2099
2127
2026
1851
1711
1682
1794
1972
2128
2172
2075
1878
1685
1602
1678
1872
2076
2194
2155
1967
1738
1601
1631
1789
1984
2135
2161
2031
1806
1610
1565
1680
1892
2096
2173
2107
1919
1728
1616
1658
1813
1999
2115
2082
1897
1669
1530
1564
1743
1968
2143
2171
2026
1825
1659
1627
1759
1965
2155
2226
2147
1936
1716
1595
1629
1790
1968
2075
2032
1857
1643
1505
1531
1707
1923
2094
2116
1981
1753
1580
1531
1646
1840
2019
2083
1989
1807
1610
1518
1596
1787
1993
2115
2096
1933
1707
1530
1507
1648
1852
2021
2099
2038
1919
1858
1955
2208
2550
2875
3081
3095
2983
2861
2800
2842
2941
2974
2865
2615
2243
1861
1572
1455
1520
1674
1825
1875
1789
1616
1456
1431
1553
1759
1968
2075
2003
1824
1642
1565
1654
1860
2081
2199
2165
1967
1744
1604
1626
1787
2001
2179
2232
2141
1949
1776
1712
1791
1969
2148
2226
2162
1985
1792
1700
1771
1949
2142
2265
2255
2091
1880
1743
1765
1930
2153
2320
2353
2224
2003
1820
1778
1904
2129
2357
2486
2448
2285
2081
1981
2041
2235
2446
2583
2559
2416
2226
2095
2113
2278
2496
2677
2736
2650
2456
2283
2227
2334
2523
2711
2817
2768
2559
2349
2240
2294
2459
2647
2768
2752
2589
2358
2205
2197
2341
2543
2714
2756
2650
2448
2265
2181
2246
2435
2639
2751
2725
2590
2465
2461
2608
2864
3152
3342
3365
3205
2967
2797
2774
2911
3107
3248
3269
3145
2913
2719
2657
2763
2958
3127
3197
3124
2930
2719
2606
2637
2816
3027
3163
3159
2992
2755
2580
2547
2673
2867
3015
3047
2932
2726
2532
2458
2529
2709
2877
2947
2887
2706
2500
2385
2416
2559
2767
2887
2855
2679
2449
2287
2263
2378
2559
2736
2793
2682
2466
2282
2214
2286
2451
2622
2687
2612
2410
2192
2085
2138
2314
2506
2625
2603
2435
2211
2014
1961
2058
2234
2384
2427
2318
2110
1925
1877
2005
2252
2519
2727
2835
2831
2759
2731
2830
3067
3337
3524
3489
3219
2830
2448
2194
2102
2115
2143
2112
1967
1737
1535
1471
1578
1777
1971
2087
2046
1872
1680
1586
1630
1794
1973
2123
2155
2032
1838
1679
1654
1767
1942
2112
2171
2089
1902
1711
1632
1703
1878
2076
2177
2138
1951
1744
1618
1619
1787
1983
2128
2129
1979
1750
1587
1583
1715
1917
2074
2107
1981
1749
1558
1489
1602
1822
2032
2142
2093
1910
1715
1587
1600
1753
1945
2095
2106
1987
1797
1646
1622
1746
1943
2100
2119
2000
1778
1535
1424
1467
1618
1746
1786
1697
1491
1279
1183
1237
1386
1531
1616
1570
1393
1168
997
976
1115
1339
1526
1600
1525
1341
1143
1039
1081
1255
1450
1563
1520
1323
1086
953
1008
1200
1413
1568
1570
1421
1217
1069
1049
1176
1391
1578
1646
1553
1344
1142
1051
1107
1297
1505
1614
1564
1385
1189
1071
1090
1253
1454
1597
1593
1442
1234
1062
1035
1157
1374
1572
1668
1601
1382
1158
1062
1131
1315
1520
1655
1648
1480
1261
1107
1120
1267
1450
1573
1589
1456
1265
1115
1072
1169
1359
1535
1615
1519
1325
1121
1008
1074
1278
1490
1597
1561
1385
1201
1104
1163
1346
1571
1729
1738
1587
1342
1136
1057
1141
1323
1501
1588
1522
1371
1232
1218
1390
1697
2031
2287
2379
2319
2201
2157
2219
2389
2559
2655
2559
2285
1892
1527
1345
1315
1398
1505
1562
1478
1302
1131
1063
1157
1350
1554
1680
1678
1533
1321
1190
1189
1333
1556
1725
1765
1648
1450
1279
1249
1360
1562
1756
1842
1778
1593
1391
1294
1346
1535
1750
1861
1824
1663
1453
1312
1330
1487
1707
1869
1885
1739
1506
1321
1291
1411
1631
1838
1915
1831
1627
1423
1326
1387
1557
1731
1847
1847
1714
1520
1390
1401
1552
1776
1946
1982
1856
1641
1467
1438
1533
1710
1889
1982
1915
1697
1477
1391
1447
1639
1845
1958
1943
1789
1570
1399
1385
1524
1739
1903
1936
1823
1597
1394
1331
1425
1607
1773
1859
1838
1687
1511
1423
1498
1680
1862
1971
1951
1798
1595
1425
1423
1583
1776
1940
2013
1966
1789
1605
1535
1646
1823
1982
2066
2018
1856
1678
1569
1615
1797
1997
2135
2149
2026
1841
1700
1693
1828
2029
2179
2208
2099
1888
1713
1653
1743
1946
2163
2261
2214
2034
1837
1733
1787
1973
2191
2323
2320
2174
1965
1808
1799
1920
2111
2251
2272
2157
1948
1780
1727
1831
2019
2200
2274
2198
2000
1784
1667
1711
1875
2084
2214
2217
2079
1863
1698
1685
1809
1985
2139
2191
2096
1894
1722
1668
1797
2062
2320
2490
2544
2489
2407
2399
2509
2739
2999
3184
3203
3023
2733
2446
2253
2192
2207
2215
2148
1978
1732
1509
1426
1520
1746
1984
2141
2142
1993
1797
1669
1702
1866
2058
2182
2187
2020
1793
1650
1663
1815
2030
2193
2233
2140
1941
1761
1695
1781
1968
2160
2253
2215
2035
1840
1725
1767
1931
2118
2245
2250
2106
1904
1744
1743
1856
2033
2192
2246
2182
2013
1854
1788
1872
2065
2253
2353
2314
2133
1935
1825
1857
2027
2247
2401
2411
2285
2094
1942
1922
2031
2211
2367
2405
2293
2087
1886
1793
1840
1995
2186
2315
2302
2141
1932
1777
1771
1901
2077
2205
2212
2080
1872
1706
1658
1776
1987
2173
2224
2127
1917
1709
1598
1650
1830
2029
2131
2075
1890
1691
1566
1581
1741
1938
2094
2115
1991
1792
1617
1579
1687
1879
2058
2106
1995
1793
1605
1518
1598
1795
2005
2155
2138
1956
1717
1567
1585
1741
1945
2112
2131
2000
1797
1635
1591
1693
1874
2031
2087
2000
1808
1616
1535
1639
1834
2016
2109
2034
1830
1613
1488
1517
1703
1929
2090
2108
1987
1794
1638
1593
1709
1895
2059
2103
1988
1781
1575
1483
1557
1744
1948
2066
2034
1871
1651
1508
1535
1727
1941
2101
2128
1991
1759
1558
1490
1600
1787
1954
2030
1984
1845
1727
1737
1925
2237
2559
2783
2850
2781
2669
2608
2679
2843
3005
3024
2834
2480
2047
1678
1481
1499
1648
1808
1873
1794
1606
1419
1360
1469
1683
1902
2023
1983
1795
1578
1412
1422
1575
1774
1921
1967
1861
1640
1455
1419
1535
1751
1926
1990
1921
1741
1554
1479
1535
1742
1932
2054
2042
1888
1680
1529
1534
1686
1899
2064
2103
1987
1776
1585
1526
1629
1839
2035
2140
2086
1891
1685
1584
1625
1805
2007
2159
2160
2009
1808
1683
1706
1842
2032
2182
2203
2080
1863
1692
1671
1806
2005
2192
2269
2192
1989
1781
1669
1710
1863
2046
2161
2139
1983
1777
1637
1634
1762
1949
2107
2123
1980
1778
1616
1581
1680
1866
2039
2111
2025
1835
1639
1531
1582
1743
1934
2086
2106
1977
1788
1635
1617
1762
1968
2139
2176
2047
1839
1648
1591
1691
1883
2066
2155
2112
1929
1727
1629
1680
1843
2031
2158
2160
2025
1829
1692
1688
1829
2006
2144
2165
2041
1838
1648
1599
1710
1913
2079
2174
2108
1903
1713
1616
1675
1853
2046
2166
2159
2007
1802
1637
1641
1772
1945
2071
2089
1971
1771
1581
1509
1617
1831
2059
2175
2128
1929
1703
1560
1589
1731
1917
2047
2038
1904
1712
1588
1598
1743
1949
2110
2151
2055
1854
1665
1587
1648
1808
1977
2052
1993
1834
1670
1618
1746
2007
2317
2559
2714
2721
2640
2595
2676
2896
3171
3373
3349
3086
2640
2197
1887
1763
1776
1840
1873
1791
1616
1427
1335
1381
1561
1779
1937
1966
1851
1663
1515
1501
1631
1814
1968
2017
1923
1745
1582
1531
1626
1811
1991
2076
2022
1840
1638
1530
1579
1735
1919
2054
2064
1931
1728
1572
1561
1711
1931
2123
2187
2096
1890
1690
1605
1675
1853
2047
2160
2126
1963
1773
1655
1696
1871
2069
2201
2215
2091
1887
1739
1713
1843
2061
2229
2285
2196
2011
1842
1794
1902
2099
2275
2350
2295
2102
1889
1776
1806
1957
2143
2274
2274
2138
1923
1744
1701
1813
2007
2170
2208
2118
1925
1719
1613
1667
1840
2026
2140
2118
1958
1765
1631
1651
1820
2027
2176
2176
2033
1827
1662
1628
1743
1923
2096
2142
2058
1862
1677
1605
1680
1866
2064
2158
2112
1943
1745
1645
1693
1866
2067
2199
2199
2055
1833
1662
1619
1734
1929
2109
2160
2042
1849
1662
1594
1685
1887
2089
2195
2165
1993
1782
1650
1676
1833
2027
2174
2190
2061
1842
1674
1638
1757
1953
2123
2183
2106
1908
1712
1616
1663
1824
2012
2129
2114
1963
1767
1626
1627
1776
1985
2142
2161
2029
1811
1620
1575
1692
1895
2089
2165
2096
1911
1714
1639
1722
1897
2083
2192
2163
1991
1778
1616
1607
1736
1931
2109
2176
2139
2055
2019
2141
2423
2800
3151
3377
3421
3311
3170
3090
3119
3178
3170
3021
2721
2308
1889
1598
1488
1598
1792
1950
1989
1905
1733
1599
1585
1717
1933
2139
2241
2205
2034
1845
1757
1820
2001
2195
2322
2310
2160
1946
1808
1808
1939
2128
2269
2288
2171
1975
1818
1789
1905
2112
2286
2352
2289
2110
1903
1795
1840
1999
2178
2281
2255
2119
1931
1791
1808
1954
2161
2347
2413
2313
2112
1928
1883
2000
2204
2384
2475
2405
2205
1991
1870
1890
2047
2230
2350
2345
2201
2010
1863
1866
2021
2246
2425
2477
2368
2171
2018
2006
2141
2335
2514
2596
2513
2310
2096
1979
2031
2191
2357
2448
2416
2254
2034
1872
1856
1997
2190
2346
2384
2274
2069
1875
1808
1904
2098
2275
2346
2251
2062
1849
1744
1803
1969
2162
2289
2275
2133
1919
1775
1773
1889
2079
2241
2291
2193
2000
1811
1746
1834
2000
2165
2227
2147
1947
1734
1633
1687
1870
2075
2201
2191
2035
1835
1698
1694
1808
1974
2106
2129
2037
1871
1703
1648
1735
1907
2083
2172
2119
1942
1743
1619
1650
1803
1985
2099
2069
1907
1697
1535
1520
1650
1847
1991
2015
1904
1712
1533
1465
1535
1730
1923
2030
1968
1776
1560
1430
1462
1635
1823
1937
1907
1776
1566
1409
1402
1535
1725
1869
1893
1765
1535
1324
1232
1298
1471
1654
1775
1776
1677
1586
1601
1781
2112
2467
2751
2869
2793
2689
2589
2559
2639
2714
2674
2458
2109
1678
1284
1061
1037
1162
1346
1444
1405
1234
1045
942
997
1200
1426
1581
1566
1395
1187
1047
1043
1193
1399
1557
1598
1495
1306
1125
1059
1136
1321
1502
1597
1535
1360
1152
1039
1076
1279
1520
1717
1801
1731
1581
1451
1439
1583
1779
1949
2002
1914
1733
1555
1472
1571
1777
1982
2096
2046
1857
1654
1535
1615
1808
2023
2163
2160
2001
1780
1609
1587
1710
1893
2055
2112
2017
1806
1595
1505
1599
1795
1998
2113
2079
1906
1697
1575
1584
1729
1914
2044
2046
1917
1715
1558
1514
1616
1795
1963
2032
1961
1776
1586
1498
1578
1762
1949
2037
1983
1797
1585
1440
1449
1600
1778
1913
1923
1801
1611
1450
1431
1578
1792
1969
2028
1943
1744
1535
1462
1535
1722
1901
1993
1965
1798
1605
1485
1507
1666
1872
2031
2053
1905
1698
1533
1516
1644
1830
1987
2042
1972
1794
1606
1519
1588
1754
1923
2022
1995
1838
1633
1511
1535
1695
1888
2032
2059
1927
1725
1559
1535
1686
1891
2073
2150
2078
1895
1702
1616
1665
1822
1989
2089
2042
1862
1649
1511
1530
1712
1934
2092
2099
1947
1731
1557
1520
1657
1863
2046
2112
2022
1811
1605
1517
1591
1774
1970
2102
2097
1946
1747
1615
1606
1732
1905
2031
2032
1904
1715
1584
1602
1785
2074
2371
2608
2698
2673
2634
2656
2800
3041
3293
3435
3344
3031
2607
2207
1957
1908
1963
1993
1937
1776
1558
1390
1353
1487
1723
1946
2068
2023
1841
1659
1599
1684
1862
2047
2162
2131
1969
1773
1648
1665
1819
2014
2174
2206
2096
1905
1740
1687
1801
1984
2161
2242
2192
2033
1863
1791
1854
2002
2179
2295
2278
2118
1904
1770
1776
1924
2132
2290
2323
2217
2019
1867
1836
1954
2139
2294
2352
2288
2124
1947
1856
1920
2110
2306
2434
2404
2224
2011
1862
1854
1977
2161
2304
2325
2207
1984
1775
1709
1799
1973
2134
2185
2109
1921
1743
1636
1687
1872
2082
2193
2148
1958
1713
1534
1534
1709
1929
2096
2118
1993
1775
1575
1495
1597
1791
1967
2032
1963
1770
1578
1488
1563
1744
1947
2086
2075
1922
1705
1535
1535
1691
1888
2043
2087
1989
1807
1642
1595
1698
1899
2096
2176
2095
1887
1703
1617
1666
1812
1973
2077
2065
1925
1744
1631
1659
1811
2017
2174
2213
2098
1900
1738
1703
1825
2017
2189
2256
2181
1993
1793
1685
1726
1881
2054
2167
2159
1999
1797
1673
1691
1841
2014
2151
2161
2033
1823
1659
1619
1743
1950
2146
2242
2191
2000
1799
1685
1724
1878
2076
2213
2239
2118
1919
1775
1777
1921
2113
2256
2295
2175
1936
1731
1664
1765
1971
2186
2322
2352
2267
2210
2256
2450
2768
3097
3333
3396
3285
3094
2942
2914
2979
3044
3034
2889
2614
2285
2002
1879
1923
2095
2265
2381
2395
2299
2175
2112
2182
2366
2559
2693
2704
2554
2361
2236
2246
2385
2592
2743
2753
2614
2413
2219
2146
2234
2430
2635
2741
2694
2506
2262
2112
2128
2293
2505
2640
2636
2493
2299
2148
2133
2271
2474
2659
2715
2624
2417
2222
2144
2224
2386
2549
2646
2617
2463
2258
2130
2160
2305
2480
2610
2595
2437
2224
2061
2037
2161
2334
2479
2503
2386
2186
2012
1965
2065
2249
2419
2511
2455
2267
2033
1875
1872
2005
2201
2320
2320
2183
1971
1790
1744
1847
2023
2179
2224
2123
1903
1687
1591
1670
1872
2071
2169
2107
1901
1680
1567
1606
1778
1968
2111
2122
2007
1792
1607
1552
1664
1863
2044
2107
2013
1807
1603
1509
1582
1759
1956
2071
2018
1856
1659
1535
1587
1776
1975
2089
2079
1941
1722
1533
1500
1618
1815
1994
2073
1985
1787
1573
1472
1531
1693
1856
1937
1869
1659
1446
1306
1315
1465
1674
1839
1873
1761
1535
1354
1298
1409
1583
1730
1776
1691
1499
1309
1205
1266
1451
1627
1719
1687
1526
1347
1232
1259
1421
1629
1778
1822
1717
1526
1379
1379
1515
1686
1813
1825
1715
1515
1344
1303
1445
1719
2013
2258
2405
2435
2423
2459
2605
2841
3114
3294
3314
3152
2878
2597
2395
2317
2324
2346
2278
2109
1877
1669
1575
1664
1859
2071
2194
2167
2014
1857
1747
1767
1916
2134
2300
2304
2160
1947
1779
1739
1844
2035
2215
2263
2188
2018
1865
1803
1870
2043
2224
2335
2306
2145
1936
1805
1833
2001
2221
2371
2385
2245
2028
1840
1799
1916
2141
2353
2470
2419
2252
2045
1939
1981
2143
2331
2452
2432
2266
2043
1903
1899
2044
2259
2422
2465
2365
2160
1968
1922
2029
2219
2395
2477
2413
2227
2015
1913
1982
2176
2375
2471
2415
2219
1967
1805
1807
1954
2161
2324
2352
2211
1979
1792
1743
1849
2034
2215
2293
2241
2069
1884
1791
1815
1984
2167
2277
2256
2095
1902
1785
1795
1936
2131
2267
2279
2161
1968
1793
1743
1840
2032
2194
2262
2217
2058
1878
1781
1837
2007
2220
2355
2352
2199
1987
1828
1805
1938
2135
2271
2276
2154
1931
1745
1719
1851
2063
2245
2307
2225
2034
1845
1757
1808
1982
2183
2301
2288
2141
1945
1808
1810
1947
2128
2263
2288
2175
1984
1815
1749
1825
1985
2133
2187
2112
1942
1776
1697
1754
1936
2143
2273
2278
2130
1936
1809
1825
1986
2209
2365
2403
2315
2127
1911
1813
1875
2030
2189
2282
2271
2176
2079
2079
2230
2522
2846
3087
3153
3059
2907
2826
2871
3015
3178
3222
3055
2721
2309
1966
1788
1801
1950
2112
2176
2106
1906
1708
1638
1729
1914
2096
2203
2183
2032
1840
1712
1713
1857
2055
2197
2222
2113
1936
1776
1727
1835
2047
2226
2303
2255
2064
1860
1757
1808
1984
2187
2320
2305
2158
1952
1807
1811
1953
2154
2314
2358
2265
2075
1872
1791
1862
2041
2226
2316
2266
2105
1922
1835
1887
2047
2239
2356
2339
2183
1967
1819
1832
1989
2207
2374
2406
2297
2101
1925
1857
1927
2105
2263
2345
2282
2103
1915
1825
1865
2018
2195
2326
2338
2202
1990
1829
1805
1921
2111
2246
2273
2163
1939
1742
1647
1712
1883
2058
2159
2124
1973
1807
1699
1711
1821
1975
2106
2127
1995
1801
1648
1648
1778
1963
2122
2163
2070
1878
1705
1649
1753
1966
2160
2250
2192
2000
1776
1648
1663
1807
1989
2128
2150
2018
1802
1621
1586
1714
1914
2089
2140
2043
1853
1680
1609
1669
1841
2033
2155
2116
1938
1744
1603
1615
1761
1936
2046
2029
1875
1677
1513
1481
1593
1771
1920
1990
1939
1772
1600
1530
1604
1772
1942
2039
2013
1854
1626
1492
1520
1694
1877
1999
2002
1868
1642
1444
1403
1526
1741
1930
2027
1962
1730
1486
1360
1406
1569
1729
1823
1793
1671
1559
1559
1710
1985
2311
2594
2735
2704
2559
2447
2443
2545
2694
2783
2706
2445
2063
1675
1437
1391
1490
1648
1729
1694
1555
1394
1290
1325
1495
1709
1863
1894
1762
1530
1346
1299
1412
1616
1791
1845
1790
1631
1462
1408
1495
1683
1859
1950
1904
1730
1532
1408
1427
1588
1782
1926
1949
1837
1644
1484
1457
1565
1727
1891
1962
1884
1698
1507
1431
1516
1710
1878
1993
1958
1774
1533
1395
1424
1591
1791
1952
1995
1899
1711
1553
1521
1647
1842
2002
2081
2019
1851
1673
1577
1627
1791
1971
2085
2036
1840
1606
1458
1474
1631
1820
1968
1995
1866
1654
1479
1453
1573
1776
1952
2027
1955
1749
1525
1418
1456
1614
1795
1906
1895
1744
1554
1424
1444
1601
1790
1926
1949
1823
1616
1443
1408
1530
1726
1904
1978
1890
1675
1477
1397
1484
1674
1858
1959
1928
1771
1581
1437
1434
1571
1765
1920
1954
1843
1648
1475
1430
1531
1730
1915
2002
1943
1765
1581
1484
1524
1683
1856
1968
1955
1802
1598
1456
1459
1600
1797
1959
2003
1904
1718
1535
1478
1570
1753
1927
2013
1979
1821
1637
1525
1557
1711
1893
2000
1995
1838
1631
1504
1510
1646
1819
1971
2029
1938
1745
1570
1498
1589
1769
1949
2032
1979
1789
1584
1454
1483
1669
1890
2010
1979
1822
1616
1460
1459
1594
1774
1919
1937
1826
1634
1459
1438
1597
1863
2155
2361
2431
2384
2329
2355
2506
2770
3081
3316
3376
3187
2864
2546
2320
2208
2159
2123
2025
1824
1535
1316
1238
1328
1532
1747
1889
1874
1730
1570
1484
1522
1680
1856
1968
1951
1817
1619
1474
1457
1606
1833
1999
2032
1913
1712
1535
1485
1593
1789
1979
2083
2028
1851
1654
1552
1603
1799
2017
2144
2127
1968
1770
1623
1616
1742
1914
2064
2120
2031
1856
1698
1655
1769
1968
2145
2219
2149
1957
1769
1664
1723
1910
2130
2267
2269
2125
1925
1805
1808
1941
2128
2260
2271
2133
1902
1703
1648
1759
1983
2194
2295
2231
2023
1787
1655
1715
1904
2114
2251
2236
2078
1856
1680
1649
1758
1932
2099
2159
2080
1874
1671
1570
1653
1865
2081
2195
2165
2003
1795
1661
1678
1824
2011
2151
2159
2009
1789
1620
1621
1775
1985
2182
2256
2159
1957
1767
1691
1776
1979
2169
2262
2214
2031
1818
1695
1733
1902
2102
2238
2256
2128
1906
1735
1711
1840
2037
2206
2248
2146
1958
1785
1728
1808
1978
2131
2207
2160
1979
1777
1659
1709
1883
2086
2222
2227
2106
1903
1744
1744
1893
2096
2253
2295
2191
1973
1783
1723
1802
1971
2156
2254
2207
2004
1776
1628
1635
1789
1985
2132
2144
2005
1807
1638
1603
1728
1927
2114
2183
2123
1925
1729
1642
1683
1837
1998
2099
2064
1890
1714
1599
1606
1743
1935
2090
2109
1975
1787
1642
1642
1802
2060
2331
2540
2650
2657
2639
2688
2861
3153
3454
3639
3542
3220
2807
2407
2141
2032
2026
2014
1936
1759
1535
1387
1385
1555
1836
2104
2269
2267
2130
1963
1885
1960
2159
2354
2479
2453
2285
2083
1955
1979
2138
2320
2458
2482
2349
2146
1971
1935
2043
2239
2412
2469
2378
2180
1972
1877
1961
2153
2350
2451
2435
2283
2084
1939
1949
2093
2278
2429
2453
2328
2123
1954
1933
2063
2250
2416
2491
2444
2281
2103
2019
2080
2235
2411
2512
2486
2339
2153
2015
2029
2190
2379
2527
2559
2442
2220
2023
1975
2077
2269
2448
2535
2480
2295
2089
1958
1979
2128
2293
2395
2370
2208
2003
1844
1808
1903
2064
2192
2214
2096
1883
1716
1693
1808
1987
2154
2224
2160
1968
1773
1658
1693
1850
2032
2159
2130
1971
1778
1650
1678
1835
2021
2151
2161
2035
1849
1694
1657
1762
1963
2143
2219
2134
1918
1680
1565
1615
1790
1990
2128
2112
1936
1712
1535
1535
1697
1899
2045
2079
1958
1763
1579
1487
1535
1723
1894
1965
1891
1697
1489
1388
1451
1631
1826
1967
1963
1815
1617
1473
1479
1627
1826
1974
2019
1918
1701
1501
1435
1517
1699
1878
1965
1904
1727
1535
1456
1520
1694
1888
2001
1982
1828
1611
1441
1426
1554
1756
1931
1991
1911
1712
1513
1449
1535
1747
1951
2037
1963
1767
1554
1442
1486
1638
1806
1905
1885
1727
1507
1353
1361
1555
1830
2083
2246
2301
2267
2247
2325
2513
2800
3059
3234
3186
2949
2641
2350
2159
2089
2064
1997
1835
1573
1295
1108
1098
1232
1437
1638
1744
1695
1535
1405
1360
1456
1642
1805
1856
1776
1593
1383
1274
1328
1519
1725
1847
1831
1681
1488
1360
1360
1488
1680
1847
1898
1805
1614
1438
1375
1457
1648
1844
1943
1899
1716
1507
1401
1456
1627
1818
1939
1947
1813
1626
1473
1461
1601
1798
1955
2011
1946
1767
1566
1483
1575
1765
1963
2081
2054
1883
1680
1535
1566
1739
1945
2097
2113
1980
1779
1610
1585
1709
1899
2042
2086
1993
1792
1594
1495
1562
1718
1861
1930
1867
1691
1491
1377
1406
1562
1738
1862
1849
1680
1456
1278
1245
1362
1562
1728
1775
1665
1457
1264
1200
1285
1482
1690
1811
1782
1616
1417
1301
1348
1520
1710
1831
1822
1680
1475
1335
1338
1475
1673
1843
1904
1810
1609
1403
1329
1417
1615
1819
1941
1918
1766
1575
1445
1462
1628
1831
1983
2000
1885
1696
1525
1475
1586
1770
1921
1971
1874
1684
1505
1446
1535
1742
1935
2047
2026
1874
1680
1555
1575
1734
1927
2069
2090
1946
1754
1584
1535
1655
1850
2016
2053
1947
1759
1578
1493
1566
1743
1936
2039
1997
1835
1630
1495
1514
1682
1886
2027
2035
1909
1698
1513
1463
1599
1804
1995
2091
2019
1815
1591
1471
1533
1717
1911
2045
2047
1932
1806
1771
1891
2161
2495
2798
2957
2929
2785
2664
2682
2829
3024
3136
3059
2770
2354
1938
1655
1575
1647
1781
1914
1909
1773
1574
1424
1433
1610
1856
2055
2121
2022
1842
1686
1674
1794
1983
2161
2224
2138
1943
1746
1673
1759
1943
2153
2273
2240
2067
1864
1730
1745
1911
2150
2358
2464
2431
2320
2241
2270
2422
2642
2832
2903
2833
2663
2480
2413
2491
2678
2880
2995
2966
2815
2607
2444
2447
2597
2805
2972
3007
2896
2682
2485
2427
2523
2726
2903
2982
2908
2710
2510
2421
2475
2634
2800
2892
2846
2683
2478
2333
2337
2481
2686
2843
2871
2739
2503
2303
2246
2341
2502
2663
2736
2672
2489
2295
2192
2240
2400
2559
2681
2661
2512
2321
2189
2197
2361
2592
2774
2845
2791
2638
2499
2486
2601
2790
2969
3045
2976
2780
2559
2444
2465
2624
2813
2923
2891
2726
2519
2395
2398
2521
2702
2835
2863
2743
2541
2368
2313
2400
2587
2759
2823
2754
2559
2353
2240
2271
2417
2590
2704
2695
2551
2368
2225
2215
2347
2524
2667
2689
2547
2331
2146
2091
2187
2384
2585
2663
2599
2416
2215
2092
2105
2243
2419
2549
2547
2397
2192
2032
2018
2170
2376
2526
2544
2410
2190
1995
1943
2035
2215
2403
2495
2441
2265
2059
1957
2000
2161
2330
2422
2384
2222
2000
1825
1777
1881
2086
2291
2413
2418
2346
2293
2368
2559
2843
3100
3265
3267
3134
2949
2787
2736
2759
2750
2657
2453
2145
1801
1559
1488
1611
1807
1974
2036
1951
1759
1574
1508
1606
1793
1998
2104
2062
1890
1680
1562
1593
1760
1961
2102
2089
1933
1735
1584
1553
1663
1837
1987
2032
1936
1755
1587
1535
1619
1761
1908
1959
1908
1744
1566
1475
1519
1701
1914
2062
2064
1917
1697
1524
1491
1615
1811
1980
2037
1959
1781
1614
1573
1667
1873
2068
2154
2077
1877
1677
1581
1627
1771
1938
2076
2090
1966
1786
1630
1600
1712
1887
2027
2055
1936
1723
1535
1468
1574
1774
1977
2071
1991
1793
1587
1472
1535
1726
1918
2066
2096
1968
1778
1640
1612
1711
1865
2005
2047
1939
1747
1578
1503
1584
1751
1909
2001
1970
1801
1613
1472
1479
1627
1823
1959
1961
1831
1651
1514
1488
1607
1783
1940
1993
1901
1712
1506
1413
1498
1701
1904
2019
1985
1835
1623
1482
1481
1611
1794
1922
1935
1814
1629
1474
1469
1600
1790
1939
1981
1875
1663
1456
1378
1472
1670
1851
1920
1874
1699
1504
1382
1378
1501
1691
1835
1854
1723
1522
1383
1367
1505
1686
1825
1874
1795
1593
1383
1300
1366
1535
1742
1862
1838
1679
1472
1329
1341
1490
1683
1840
1866
1729
1501
1315
1253
1338
1503
1677
1765
1747
1651
1535
1568
1749
2047
2367
2593
2640
2543
2404
2317
2349
2467
2559
2585
2407
2064
1629
1266
1133
1206
1392
1564
1649
1606
1447
1265
1163
1207
1390
1589
1719
1712
1587
1411
1313
1342
1485
1674
1799
1809
1686
1470
1299
1257
1375
1584
1756
1805
1705
1517
1361
1326
1424
1595
1770
1855
1825
1663
1431
1267
1270
1424
1662
1840
1883
1777
1585
1408
1358
1447
1623
1795
1884
1835
1648
1441
1366
1447
1639
1847
1984
1984
1840
1651
1531
1535
1662
1833
1965
1986
1866
1655
1461
1410
1525
1730
1910
2000
1935
1746
1563
1471
1504
1638
1818
1936
1927
1767
1557
1394
1371
1492
1670
1808
1843
1752
1568
1406
1358
1444
1614
1762
1826
1754
1584
1407
1328
1391
1571
1735
1836
1815
1679
1489
1367
1371
1486
1671
1814
1838
1728
1527
1354
1312
1424
1638
1840
1933
1871
1679
1471
1363
1414
1607
1810
1936
1923
1776
1563
1403
1407
1553
1734
1871
1931
1875
1718
1565
1522
1616
1791
1955
2018
1936
1743
1527
1423
1488
1701
1936
2095
2096
1931
1710
1535
1517
1638
1827
1977
2014
1919
1727
1535
1483
1569
1732
1903
2005
1985
1840
1663
1557
1581
1712
1870
1983
1967
1826
1637
1485
1476
1586
1750
1886
1907
1803
1597
1399
1340
1417
1585
1745
1867
1875
1778
1680
1681
1856
2158
2472
2704
2791
2733
2590
2455
2435
2495
2559
2559
2425
2149
1779
1450
1280
1294
1437
1616
1733
1701
1527
1342
1248
1313
1501
1719
1861
1872
1744
1524
1339
1302
1434
1649
1822
1879
1793
1603
1399
1325
1402
1584
1766
1861
1818
1661
1468
1365
1405
1574
1777
1914
1933
1808
1607
1453
1426
1569
1808
2042
2167
2142
1991
1840
1793
1904
2114
2311
2416
2369
2178
1965
1839
1861
2012
2208
2353
2375
2254
2047
1887
1859
1979
2160
2308
2346
2241
2059
1882
1807
1872
2032
2206
2298
2260
2107
1910
1777
1782
1911
2089
2192
2166
2015
1795
1616
1577
1688
1879
2047
2112
2013
1808
1601
1507
1579
1755
1936
2032
1996
1829
1643
1521
1535
1691
1883
2033
2079
1968
1771
1616
1564
1655
1831
1977
2025
1936
1736
1572
1511
1607
1803
1964
2059
1999
1815
1623
1503
1519
1666
1858
1999
2014
1889
1691
1515
1485
1617
1817
1977
2014
1911
1712
1527
1463
1534
1721
1926
2043
2019
1852
1641
1511
1535
1701
1871
1991
1989
1873
1691
1535
1518
1627
1819
1991
2064
1972
1775
1584
1485
1514
1664
1845
1970
1954
1807
1615
1479
1490
1648
1840
1975
1987
1863
1651
1463
1412
1520
1729
1920
1997
1929
1735
1552
1487
1578
1761
1949
2043
1997
1825
1606
1443
1445
1600
1794
1926
1945
1838
1674
1586
1667
1911
2257
2604
2838
2914
2835
2723
2688
2778
2960
3137
3195
3034
2654
2221
1873
1712
1714
1801
1878
1871
1760
1589
1441
1415
1535
1742
1929
2007
1951
1771
1584
1467
1508
1679
1872
2009
2023
1881
1680
1535
1535
1691
1899
2065
2118
2014
1822
1634
1590
1705
1905
2094
2157
2064
1882
1699
1593
1619
1776
1961
2082
2070
1917
1723
1586
1579
1717
1915
2075
2119
2023
1831
1648
1594
1692
1882
2071
2160
2111
1936
1754
1667
1719
1898
2096
2219
2220
2084
1891
1755
1733
1870
2043
2178
2207
2110
1922
1761
1713
1805
1963
2110
2160
2084
1895
1678
1554
1589
1762
1941
2063
2053
1901
1675
1522
1514
1635
1806
1929
1941
1842
1663
1495
1466
1574
1746
1892
1965
1936
1794
1622
1521
1563
1714
1891
2010
2013
1877
1678
1531
1527
1653
1831
1971
2003
1911
1744
1594
1535
1650
1833
2000
2107
2063
1879
1678
1565
1584
1727
1891
2002
2006
1873
1689
1559
1555
1698
1891
2047
2074
1970
1792
1623
1568
1655
1845
2035
2128
2059
1840
1621
1500
1535
1728
1939
2096
2113
1983
1794
1655
1643
1759
1950
2122
2174
2086
1904
1723
1657
1728
1901
2078
2160
2103
1914
1695
1558
1583
1748
1936
2055
2062
1920
1721
1578
1581
1719
1922
2086
2133
2040
1846
1659
1585
1654
1821
1993
2111
2096
1927
1745
1653
1713
1877
2064
2199
2224
2103
1901
1748
1735
1900
2158
2409
2594
2661
2640
2614
2703
2925
3249
3609
3921
4005
3783
3443
3147
2951
2841
2739
2608
2397
2113
1818
1621
1602
1745
1958
2125
2182
2110
1929
1761
1711
1807
1995
2197
2313
2288
2132
1935
1815
1842
2000
2189
2321
2331
2202
1998
1834
1789
1893
2079
2237
2285
2203
2018
1840
1760
1831
2013
2210
2306
2270
2105
1903
1773
1776
1924
2114
2238
2239
2112
1917
1755
1713
1806
1974
2132
2186
2113
1916
1725
1643
1712
1889
2083
2195
2173
2015
1827
1712
1744
1910
2119
2266
2283
2160
1962
1805
1774
1867
2043
2199
2256
2173
1999
1840
1767
1841
2007
2177
2266
2215
2038
1825
1680
1678
1813
2000
2157
2190
2082
1903
1756
1728
1847
2033
2198
2256
2185
2010
1829
1739
1793
1954
2123
2206
2155
1973
1783
1671
1709
1873
2079
2227
2241
2130
1925
1747
1712
1820
2021
2208
2279
2191
1990
1791
1697
1760
1950
2160
2274
2250
2106
1902
1760
1774
1920
2119
2262
2286
2163
1942
1767
1730
1845
2058
2240
2319
2240
2054
1870
1791
1875
2069
2256
2359
2330
2170
1955
1814
1823
1959
2141
2295
2346
2265
2099
1945
1904
2000
2192
2367
2435
2352
2149
1931
1817
1851
1997
2165
2271
2245
2096
1897
1759
1754
1886
2078
2215
2231
2112
1917
1750
1712
1822
2006
2179
2253
2185
1991
1803
1711
1748
1915
2089
2199
2178
2022
1814
1680
1681
1830
2018
2159
2162
2031
1807
1615
1555
1664
1909
2166
2357
2430
2416
2402
2480
2687
2960
3243
3456
3509
3333
3055
2783
2592
2481
2414
2338
2173
1901
1581
1325
1240
1325
1506
1680
1779
1762
1621
1455
1377
1444
1617
1810
1936
1939
1798
1594
1428
1425
1591
1807
1973
2000
1881
1665
1472
1424
1535
1744
1932
2014
1951
1761
1555
1442
1488
1659
1853
1981
1979
1840
1634
1483
1519
1714
1951
2147
2224
2147
1963
1799
1737
1818
2015
2219
2320
2283
2126
1968
1889
1967
2163
2358
2484
2497
2379
2195
2047
2046
2193
2391
2559
2623
2523
2304
2083
1983
2033
2179
2320
2373
2288
2091
1873
1751
1773
1913
2099
2234
2258
2138
1936
1783
1773
1888
2071
2231
2281
2192
2002
1835
1783
1878
2079
2267
2365
2310
2117
1900
1777
1826
2005
2206
2338
2343
2224
2047
1924
1926
2037
2199
2338
2375
2304
2143
1987
1936
2023
2204
2384
2494
2465
2311
2127
2014
2062
2240
2448
2606
2645
2544
2370
2231
2207
2321
2511
2674
2718
2624
2425
2234
2141
2192
2349
2525
2627
2603
2431
2226
2113
2143
2288
2466
2607
2611
2475
2287
2138
2112
2208
2373
2518
2559
2500
2324
2142
2063
2134
2305
2469
2557
2509
2347
2155
2039
2084
2235
2405
2513
2491
2320
2100
1917
1878
2000
2210
2363
2402
2290
2075
1872
1792
1875
2063
2229
2318
2285
2127
1919
1782
1802
1963
2163
2305
2326
2216
2032
1891
1867
1966
2147
2314
2378
2280
2065
1839
1730
1775
1933
2117
2250
2285
2202
2128
2151
2340
2655
2987
3248
3359
3295
3130
2961
2903
2928
2965
2919
2746
2435
2043
1683
1472
1462
1617
1803
1926
1921
1781
1586
1452
1473
1639
1846
2006
2055
1968
1794
1646
1611
1712
1886
2033
2077
1977
1787
1611
1535
1627
1798
1975
2083
2053
1884
1700
1573
1582
1714
1883
1996
2007
1898
1709
1558
1535
1650
1841
2030
2112
2032
1851
1651
1553
1615
1792
1984
2119
2127
1983
1781
1655
1677
1826
2010
2159
2179
2067
1886
1729
1707
1808
1967
2123
2177
2112
1931
1734
1625
1664
1814
1986
2096
2074
1920
1733
1599
1614
1765
1941
2078
2100
1984
1779
1599
1535
1638
1813
1968
2025
1942
1747
1535
1445
1483
1629
1794
1910
1924
1808
1618
1473
1461
1579
1741
1869
1873
1744
1557
1404
1382
1495
1681
1846
1923
1872
1701
1503
1392
1421
1582
1770
1889
1887
1755
1578
1451
1458
1615
1823
1984
2027
1921
1724
1522
1451
1518
1675
1831
1907
1840
1652
1466
1380
1429
1617
1807
1927
1907
1739
1527
1392
1388
1513
1693
1833
1882
1805
1627
1472
1449
1562
1729
1872
1946
1895
1715
1505
1379
1381
1520
1698
1831
1829
1663
1425
1246
1213
1342
1535
1699
1755
1663
1461
1281
1218
1303
1488
1666
1743
1686
1505
1317
1228
1270
1423
1586
1695
1709
1599
1424
1285
1265
1386
1562
1703
1739
1634
1426
1236
1180
1299
1535
1797
1969
2018
1970
1919
1942
2081
2310
2559
2783
2839
2729
2503
2271
2096
1997
1955
1917
1811
1607
1347
1136
1059
1158
1369
1584
1678
1625
1455
1259
1153
1213
1414
1651
1808
1791
1649
1457
1309
1306
1456
1664
1814
1859
1785
1600
1397
1322
1389
1559
1744
1842
1808
1651
1462
1358
1393
1535
1718
1840
1845
1721
1535
1393
1405
1575
1795
1965
2011
1903
1706
1527
1488
1619
1856
2095
2226
2223
2087
1909
1797
1835
2000
2201
2332
2349
2225
2023
1876
1866
2007
2215
2381
2416
2319
2128
1925
1834
1891
2058
2215
2302
2263
2090
1872
1746
1773
1919
2096
2205
2192
2033
1808
1643
1603
1722
1906
2055
2065
1908
1643
1381
1234
1248
1373
1502
1535
1425
1200
966
811
784
903
1074
1211
1230
1106
911
757
743
880
1083
1237
1291
1206
993
815
753
846
1047
1242
1331
1323
1185
1009
900
912
1049
1235
1392
1457
1378
1203
1047
1006
1119
1296
1453
1508
1431
1245
1057
978
1067
1264
1465
1600
1584
1412
1205
1094
1137
1301
1517
1664
1686
1573
1374
1201
1142
1246
1441
1623
1687
1605
1407
1213
1117
1175
1356
1535
1665
1639
1471
1284
1174
1216
1382
1569
1695
1712
1594
1407
1279
1274
1391
1580
1744
1831
1747
1555
1342
1241
1301
1471
1646
1744
1729
1590
1406
1290
1319
1500
1747
1952
2064
2066
2001
1975
2070
2283
2545
2807
2944
2886
2667
2394
2176
2046
1990
1958
1899
1775
1553
1315
1154
1155
1311
1535
1719
1794
1722
1535
1385
1365
1493
1709
1891
1972
1910
1749
1567
1469
1535
1719
1893
1984
1962
1825
1639
1503
1520
1680
1869
2011
2032
1909
1711
1535
1511
1613
1789
1951
2010
1937
1766
1591
1507
1584
1757
1943
2087
2100
1963
1766
1625
1618
1749
1937
2107
2162
2076
1892
1719
1669
1766
1938
2117
2207
2167
2006
1831
1744
1792
1965
2151
2261
2249
2105
1919
1790
1796
1947
2150
2295
2321
2201
1993
1810
1743
1819
1979
2131
2200
2135
1952
1766
1680
1743
1898
2065
2159
2117
1949
1739
1594
1583
1714
1923
2109
2168
2077
1874
1693
1637
1741
1918
2097
2182
2128
1955
1776
1680
1731
1907
2107
2227
2224
2068
1856
1703
1705
1841
2033
2192
2237
2118
1909
1729
1674
1777
1971
2160
2241
2189
1995
1807
1715
1774
1939
2141
2269
2255
2112
1918
1780
1778
1906
2090
2226
2255
2151
1958
1797
1767
1871
2062
2218
2259
2185
1987
1783
1706
1775
1943
2129
2245
2239
2109
1904
1747
1731
1857
2064
2207
2240
2146
2007
1926
1968
2147
2419
2681
2822
2805
2639
2448
2351
2402
2587
2790
2935
2960
2814
2590
2401
2337
2427
2605
2750
2813
2755
2602
2466
2479
2674
2995
3346
3622
3700
3562
3407
3333
3401
3573
3775
3815
3583
3197
2766
2413
2223
2219
2319
2427
2459
2373
2192
2027
1968
2064
2249
2426
2534
2507
2345
2139
2006
2032
2183
2359
2491
2507
2379
2167
1989
1949
2067
2270
2442
2512
2445
2269
2104
2032
2107
2278
2450
2559
2535
2367
2185
2064
2077
2219
2390
2512
2520
2396
2192
2029
2000
2115
2289
2445
2498
2423
2248
2055
1968
2045
2241
2433
2544
2513
2339
2109
1957
1969
2143
2355
2511
2532
2410
2219
2062
2034
2160
2352
2512
2555
2458
2252
2047
1954
2011
2171
2352
2464
2436
2256
2042
1904
1904
2018
2197
2321
2331
2206
1999
1827
1782
1883
2058
2213
2267
2179
1984
1797
1723
1785
1947
2129
2251
2240
2103
1936
1856
1909
2086
2296
2451
2480
2369
2176
1997
1952
2077
2262
2414
2461
2387
2198
1997
1890
1936
2108
2289
2402
2378
2215
2002
1855
1851
2006
2225
2386
2415
2286
2075
1895
1846
1945
2135
2295
2352
2261
2060
1853
1751
1823
2013
2218
2335
2317
2162
1950
1808
1819
1954
2127
2241
2237
2101
1886
1710
1663
1774
1958
2141
2212
2134
1941
1749
1654
1699
1859
2035
2154
2139
1991
1785
1635
1632
1782
1960
2102
2155
2070
1881
1719
1687
1793
1968
2140
2192
2099
1884
1651
1520
1565
1731
1914
2032
2029
1904
1756
1710
1821
2097
2453
2778
2961
2979
2876
2781
2799
2940
3134
3243
3169
2858
2416
1971
1663
1567
1634
1749
1831
1793
1639
1447
1333
1363
1523
1754
1930
1979
1886
1694
1511
1453
1559
1747
1929
2000
1917
1723
1523
1425
1491
1671
1866
1991
1990
1846
1649
1503
1493
1629
1809
1959
1999
1895
1714
1571
1554
1673
1873
2059
2135
2063
1851
1642
1535
1593
1770
1968
2096
2109
1983
1809
1689
1687
1810
1990
2146
2195
2108
1927
1780
1744
1856
2064
2259
2362
2308
2128
1922
1827
1887
2067
2263
2386
2370
2198
1979
1825
1808
1934
2139
2297
2330
2221
2013
1817
1739
1815
1978
2128
2188
2123
1936
1743
1665
1697
1856
2031
2150
2134
1974
1762
1617
1607
1729
1921
2090
2142
2063
1869
1695
1636
1712
1873
2032
2110
2058
1895
1723
1643
1681
1841
2018
2134
2125
1984
1779
1622
1616
1770
1981
2163
2225
2129
1925
1721
1655
1754
1938
2119
2198
2141
1957
1744
1616
1637
1795
1989
2131
2135
1983
1771
1605
1584
1719
1933
2111
2151
2034
1831
1653
1606
1712
1915
2099
2176
2107
1904
1683
1563
1597
1753
1929
2042
2029
1879
1665
1511
1490
1619
1806
1961
2000
1904
1714
1533
1471
1554
1738
1935
2033
1982
1819
1650
1555
1600
1743
1914
2023
2007
1870
1661
1482
1468
1600
1765
1891
1918
1804
1601
1417
1370
1499
1760
2065
2307
2428
2425
2391
2414
2543
2777
3065
3301
3371
3212
2902
2550
2273
2112
2064
2038
1947
1758
1490
1246
1129
1191
1394
1616
1743
1731
1582
1398
1277
1294
1442
1629
1771
1803
1680
1463
1294
1259
1387
1583
1757
1844
1798
1622
1442
1360
1419
1586
1782
1898
1873
1719
1518
1395
1414
1569
1764
1883
1878
1760
1595
1457
1456
1598
1801
1977
2041
1967
1778
1600
1525
1607
1803
2002
2128
2097
1910
1690
1562
1583
1745
1957
2111
2147
2059
1873
1728
1697
1799
1983
2160
2222
2137
1958
1785
1714
1787
1963
2144
2240
2222
2073
1863
1713
1701
1819
1993
2134
2151
2031
1830
1654
1616
1710
1861
2003
2068
1971
1775
1586
1503
1574
1755
1954
2070
2032
1883
1686
1554
1570
1729
1933
2081
2103
1983
1785
1613
1535
1621
1798
1964
2046
2007
1840
1648
1552
1611
1786
1979
2106
2100
1949
1754
1621
1648
1813
2031
2178
2192
2064
1868
1703
1673
1781
1971
2143
2208
2123
1927
1739
1650
1712
1889
2077
2176
2151
1982
1781
1664
1683
1838
2034
2198
2235
2132
1934
1744
1683
1780
1969
2150
2224
2151
1962
1757
1648
1683
1835
2003
2114
2091
1926
1726
1594
1585
1715
1901
2045
2090
1984
1802
1644
1600
1686
1872
2053
2123
2043
1856
1648
1535
1602
1791
2000
2133
2135
1997
1792
1638
1616
1715
1863
1987
2011
1921
1754
1648
1683
1887
2195
2528
2797
2911
2869
2768
2736
2851
3071
3284
3358
3201
2838
2377
1964
1727
1675
1723
1781
1773
1652
1458
1296
1261
1365
1568
1759
1855
1817
1648
1447
1330
1379
1553
1745
1883
1876
1733
1535
1401
1404
1535
1771
1936
1983
1893
1699
1513
1451
1535
1738
1897
1982
1936
1776
1574
1439
1472
1649
1843
1979
1981
1840
1647
1505
1503
1644
1841
2003
2064
1965
1776
1613
1570
1678
1872
2073
2182
2134
1950
1737
1609
1637
1813
2027
2180
2206
2083
1881
1730
1713
1841
2032
2182
2234
2133
1935
1747
1689
1775
1961
2156
2255
2217
2047
1850
1727
1744
1888
2065
2179
2166
1999
1786
1627
1610
1741
1945
2128
2199
2128
1936
1756
1692
1786
1968
2165
2266
2228
2059
1847
1722
1754
1911
2107
2233
2250
2130
1945
1803
1799
1957
2187
2370
2439
2366
2171
1977
1900
1978
2158
2320
2391
2334
2162
1970
1865
1898
2032
2228
2369
2379
2254
2061
1894
1875
1998
2191
2352
2413
2322
2138
1962
1890
1965
2130
2302
2374
2326
2171
1971
1872
1915
2095
2283
2403
2394
2262
2075
1902
1843
1938
2123
2288
2346
2259
2077
1891
1808
1869
2033
2205
2295
2250
2076
1872
1741
1760
1917
2102
2240
2263
2136
1931
1774
1738
1841
2030
2209
2275
2183
1981
1776
1691
1761
1919
2096
2197
2176
2011
1823
1692
1691
1805
1951
2074
2105
2034
1925
1874
1979
2253
2603
2909
3105
3129
3005
2871
2847
2951
3120
3222
3152
2875
2449
2014
1691
1570
1642
1792
1920
1943
1838
1651
1488
1466
1594
1797
1966
2038
1971
1793
1616
1555
1644
1827
2006
2101
2053
1872
1677
1569
1600
1762
1975
2137
2169
2037
1825
1641
1603
1728
1931
2106
2161
2064
1855
1666
1583
1659
1841
2035
2135
2112
1951
1757
1643
1663
1815
2007
2159
2189
2095
1906
1757
1725
1830
2007
2165
2215
2138
1970
1808
1742
1813
1979
2151
2245
2210
2038
1833
1683
1680
1827
2013
2166
2194
2083
1895
1719
1679
1783
1968
2130
2178
2083
1873
1654
1531
1568
1731
1926
2034
2003
1847
1641
1491
1500
1643
1821
1958
1975
1842
1647
1472
1422
1498
1682
1845
1920
1854
1671
1472
1371
1435
1616
1812
1935
1925
1792
1598
1463
1481
1645
1841
1983
2014
1921
1747
1585
1520
1610
1791
1964
2043
1979
1786
1583
1477
1535
1732
1913
2003
1979
1826
1620
1459
1444
1566
1725
1840
1845
1717
1507
1343
1293
1387
1563
1712
1760
1675
1477
1266
1151
1200
1383
1598
1719
1691
1511
1297
1136
1136
1289
1461
1602
1638
1523
1341
1205
1167
1235
1392
1535
1597
1472
1237
994
857
883
1044
1225
1342
1327
1155
921
750
746
887
1122
1307
1342
1211
1001
814
752
851
1067
1289
1447
1493
1451
1405
1469
1676
1954
2230
2417
2484
2402
2242
2091
2022
2039
2046
1992
1838
1553
1225
946
826
882
1079
1289
1410
1386
1216
1009
912
979
1190
1403
1535
1567
1413
1200
1063
1088
1228
1431
1618
1683
1603
1415
1258
1198
1297
1501
1707
1810
1757
1565
1325
1183
1221
1415
1647
1805
1808
1631
1425
1271
1273
1431
1658
1840
1882
1779
1578
1402
1364
1473
1678
1878
1981
1933
1747
1535
1425
1481
1663
1845
1980
1999
1872
1686
1555
1535
1682
1866
2005
2047
1957
1760
1579
1502
1586
1777
1957
2047
2007
1854
1648
1511
1520
1662
1855
2015
2026
1889
1678
1519
1488
1619
1810
1970
2019
1916
1691
1475
1394
1487
1680
1860
1943
1897
1728
1535
1433
1451
1613
1803
1943
1967
1833
1609
1434
1410
1553
1774
1951
2019
1941
1744
1552
1469
1557
1742
1931
2047
2015
1830
1618
1509
1563
1735
1927
2069
2095
1968
1773
1616
1590
1712
1904
2069
2131
2057
1872
1697
1654
1726
1888
2091
2192
2160
2001
1810
1678
1673
1798
2006
2177
2206
2085
1881
1717
1682
1782
1955
2128
2192
2112
1927
1766
1714
1812
2004
2190
2288
2261
2112
1931
1801
1803
1936
2134
2276
2288
2167
1962
1789
1751
1867
2067
2228
2293
2233
2064
1874
1788
1840
2007
2181
2285
2275
2139
1968
1889
1972
2202
2483
2749
2910
2921
2800
2689
2711
2887
3129
3325
3349
3178
2806
2401
2102
2000
2064
2165
2226
2185
2002
1777
1648
1691
1885
2112
2275
2304
2187
2002
1873
1855
1964
2132
2272
2334
2271
2090
1894
1808
1870
2047
2243
2352
2342
2207
2022
1921
1953
2106
2290
2427
2437
2311
2109
1936
1899
2000
2192
2367
2443
2381
2213
2030
1955
2019
2192
2378
2496
2494
2352
2157
2014
2017
2165
2372
2542
2581
2465
2267
2110
2065
2194
2368
2541
2618
2546
2363
2178
2109
2164
2317
2497
2613
2559
2407
2203
2076
2098
2256
2448
2594
2618
2483
2249
2033
1968
2057
2225
2389
2465
2384
2179
1946
1794
1807
1936
2096
2191
2157
1986
1757
1578
1535
1640
1840
1998
2015
1895
1687
1507
1456
1559
1746
1914
1995
1936
1753
1552
1455
1521
1715
1925
2063
2059
1916
1727
1584
1577
1706
1894
2041
2066
1954
1737
1535
1491
1609
1798
1954
2014
1935
1743
1535
1433
1491
1680
1879
2007
1983
1826
1625
1483
1488
1641
1817
1966
2001
1903
1702
1519
1459
1535
1719
1902
1984
1936
1767
1559
1439
1460
1619
1798
1917
1919
1781
1591
1443
1437
1582
1777
1938
2002
1917
1728
1527
1441
1515
1717
1904
1989
1936
1762
1569
1442
1488
1670
1863
1967
1936
1782
1584
1439
1456
1628
1882
2141
2295
2320
2269
2223
2262
2447
2726
3019
3235
3245
3041
2791
2587
2480
2474
2508
2499
2385
2174
1925
1759
1733
1869
2071
2237
2281
2192
2005
1871
1857
1983
2198
2397
2494
2435
2247
2023
1886
1909
2061
2241
2383
2416
2303
2114
1949
1922
2037
2227
2386
2437
2358
2190
2019
1957
2033
2227
2411
2496
2439
2265
2077
1941
1959
2112
2292
2419
2434
2315
2109
1936
1920
2039
2223
2362
2385
2283
2080
1875
1789
1863
2043
2215
2293
2242
2067
1857
1742
1779
1943
2154
2270
2253
2109
1887
1723
1702
1827
2026
2194
2253
2156
1934
1710
1614
1669
1839
2007
2103
2047
1878
1698
1573
1584
1727
1890
1997
1974
1839
1659
1507
1489
1599
1762
1904
1957
1872
1682
1499
1427
1519
1728
1930
2026
1987
1827
1618
1488
1514
1665
1849
1994
2006
1860
1637
1467
1454
1601
1815
1984
2043
1940
1746
1577
1502
1582
1756
1936
2038
2000
1826
1618
1492
1518
1669
1857
1990
2003
1874
1690
1554
1527
1649
1840
1991
2019
1904
1712
1535
1471
1535
1743
1954
2093
2069
1897
1677
1526
1531
1681
1872
1997
1987
1854
1662
1498
1466
1580
1754
1903
1949
1869
1705
1535
1475
1535
1706
1872
1977
1953
1815
1637
1519
1529
1677
1872
2023
2037
1905
1695
1498
1429
1525
1738
1936
2045
1997
1822
1629
1511
1530
1675
1849
1937
1907
1762
1596
1511
1598
1818
2103
2373
2546
2603
2559
2515
2558
2744
3011
3259
3360
3247
2925
2543
2221
2034
1990
2003
1984
1871
1653
1418
1268
1279
1445
1671
1860
1923
1856
1711
1569
1527
1613
1761
1896
1942
1862
1706
1535
1478
1535
1714
1895
2003
1983
1838
1654
1533
1567
1735
1939
2102
2128
2001
1814
1649
1599
1673
1839
2002
2080
2032
1887
1733
1682
1763
1922
2098
2195
2163
2007
1811
1674
1679
1823
2023
2191
2231
2120
1929
1775
1744
1872
2071
2253
2327
2274
2103
1918
1830
1885
2063
2262
2387
2367
2211
2006
1850
1835
1978
2191
2360
2403
2289
2086
1907
1872
1980
2147
2288
2335
2241
2003
1771
1651
1705
1879
2077
2204
2215
2080
1876
1725
1709
1823
1990
2126
2157
2056
1881
1733
1710
1812
1997
2161
2226
2167
1983
1785
1677
1731
1907
2103
2213
2188
2047
1846
1697
1731
1878
2063
2192
2212
2109
1913
1737
1693
1795
1981
2156
2235
2182
2015
1813
1711
1751
1919
2114
2250
2238
2094
1888
1744
1741
1868
2035
2174
2202
2107
1920
1750
1698
1793
2000
2202
2295
