2063
2039
1957
1842
1767
1783
1855
1946
2021
2035
1998
1921
1841
1823
1878
1973
2039
2046
1973
1866
1766
1707
1718
1815
1925
2019
2035
1966
1854
1771
1776
1857
1962
2065
2140
2149
2112
2094
2119
2195
2259
2260
2192
2046
1852
1671
1535
1489
1520
1598
1659
1680
1651
1610
1581
1614
1702
1829
1932
1980
1962
1893
1827
1808
1852
1947
2037
2079
2059
1988
1935
1914
1945
2041
2125
2175
2181
2118
2006
1922
1918
1988
2093
2173
2192
2139
2032
1937
1904
1966
2078
2172
2215
2182
2095
1999
1973
2013
2109
2205
2268
2256
2176
2073
2003
2015
2098
2206
2290
2320
2282
2203
2131
2098
2157
2292
2389
2429
2407
2319
2223
2165
2171
2240
2331
2397
2385
2322
2224
2147
2126
2176
2258
2320
2334
2289
2198
2115
2093
2116
2191
2256
2283
2251
2160
2045
1969
1969
2021
2110
2137
2103
2005
1898
1809
1807
1887
1993
2073
2096
2035
1923
1825
1783
1823
1914
1990
2035
2006
1922
1842
1805
1840
1934
2027
2067
2043
1959
1858
1803
1802
1858
1936
2011
2034
1974
1853
1757
1741
1814
1915
1994
2035
2014
1925
1827
1769
1771
1838
1935
2007
1995
1916
1817
1773
1792
1883
1981
2063
2096
2054
1936
1845
1811
1853
1955
2064
2093
2058
1951
1856
1813
1840
1936
2046
2118
2118
2032
1939
1883
1863
1904
1981
2027
2023
1968
1865
1776
1775
1857
1953
2000
2019
1962
1856
1758
1706
1731
1829
1937
2001
1999
1919
1818
1730
1722
1792
1891
1972
2006
1979
1895
1827
1809
1840
1903
1952
1984
1968
1875
1765
1703
1730
1808
1873
1953
2019
2025
2016
2032
2106
2210
2291
2326
2288
2146
1937
1751
1638
1616
1648
1690
1701
1666
1588
1534
1553
1645
1782
1903
1990
2000
1947
1869
1798
1780
1833
1935
2021
2043
1997
1911
1846
1846
1914
2019
2121
2172
2135
2031
1923
1870
1887
1966
2069
2161
2160
2096
2011
1938
1938
2011
2114
2192
2207
2160
2066
1987
1978
2031
2112
2194
2241
2203
2120
2032
1978
1991
2078
2176
2258
2289
2238
2149
2101
2112
2166
2260
2348
2382
2347
2257
2175
2147
2189
2274
2373
2429
2384
2290
2192
2128
2137
2217
2307
2381
2375
2276
2167
2096
2069
2112
2176
2239
2256
2194
2092
1997
1946
1971
2058
2134
2169
2143
2059
1948
1873
1873
1946
2063
2131
2135
2066
1946
1861
1844
1904
2005
2082
2106
2065
1975
1883
1830
1851
1919
1998
2046
2026
1933
1831
1776
1774
1853
1977
2067
2070
2000
1913
1840
1802
1815
1863
1937
1988
1975
1914
1854
1823
1874
1979
2067
2119
2096
1993
1878
1791
1778
1846
1931
1989
1990
1920
1823
1759
1750
1821
1908
1998
2045
2023
1967
1899
1875
1929
2001
2087
2135
2111
2007
1916
1840
1861
1909
1984
1999
1972
1883
1776
1719
1725
1797
1904
1975
2000
1963
1865
1760
1713
1753
1830
1909
1963
1961
1904
1808
1734
1743
1813
1897
1973
1975
1909
1808
1725
1714
1775
1872
1955
1969
1894
1778
1680
1655
1730
1868
2006
2114
2139
2123
2090
2065
2082
2119
2145
2133
2064
1910
1712
1530
1439
1451
1523
1617
1675
1638
1552
1489
1478
1535
1673
1809
1903
1920
1872
1809
1775
1813
1887
1966
2035
2064
2025
1947
1895
1901
1966
2054
2126
2160
2128
2035
1936
1901
1936
2019
2112
2156
2136
2062
1975
1934
1927
1973
2055
2121
2160
2115
2032
1968
1947
2003
2117
2214
2255
2227
2160
2064
2000
2021
2097
2190
2265
2285
2226
2140
2080
2105
2189
2267
2306
2304
2247
2161
2096
2098
2183
2305
2413
2448
2409
2311
2192
2103
2097
2171
2250
2295
2275
2218
2119
2053
2035
2099
2182
2227
2211
2124
1997
1911
1881
1914
1997
2079
2087
2019
1903
1802
1759
1782
1853
1920
1967
1945
1869
1776
1694
1693
1763
1862
1947
1953
1894
1801
1725
1712
1767
1869
1969
2018
1991
1929
1840
1772
1776
1842
1909
1957
1947
1888
1806
1759
1776
1829
1903
1954
1947
1873
1776
1728
1728
1777
1856
1898
1903
1872
1817
1751
1725
1748
1827
1917
1982
1990
1937
1867
1808
1824
1903
1984
2064
2086
2045
1981
1921
1906
1939
2010
2080
2098
2055
1961
1851
1770
1773
1824
1887
1935
1925
1856
1749
1684
1685
1723
1789
1869
1899
1854
1767
1705
1691
1758
1846
1936
1999
1968
1890
1814
1789
1815
1874
1933
1972
1937
1872
1774
1712
1708
1759
1815
1861
1849
1797
1751
1724
1739
1843
1999
2157
2259
2288
2221
2107
1982
1917
1887
1853
1794
1671
1493
1329
1226
1223
1322
1470
1619
1707
1704
1657
1610
1633
1718
1815
1907
1973
1983
1931
1866
1850
1904
1989
2077
2141
2133
2085
2015
1959
1951
2000
2084
2159
2178
2140
2047
1965
1951
2014
2125
2210
2250
2235
2155
2057
2001
2038
2128
2219
2263
2257
2186
2095
2046
2079
2174
2253
2304
2299
2240
2155
2083
2083
2153
2251
2330
2374
2337
2262
2192
2160
2207
2307
2391
2454
2483
2426
2347
2273
2255
2306
2395
2462
2470
2405
2307
2224
2191
2218
2290
2357
2398
2381
2295
2206
2139
2126
2178
2235
2251
2213
2112
1998
1911
1907
1950
2029
2101
2112
2039
1929
1837
1807
1859
1970
2064
2096
2037
1951
1846
1771
1789
1858
1936
1982
1984
1939
1873
1838
1854
1920
2001
2075
2094
2019
1921
1853
1824
1871
1943
1999
2000
1927
1814
1715
1683
1739
1854
1967
2035
2015
1923
1830
1758
1767
1840
1936
2021
2032
1968
1891
1834
1823
1867
1941
2028
2064
2007
1904
1819
1782
1811
1909
2010
2085
2101
2041
1961
1905
1926
2000
2112
2176
2158
2061
1935
1835
1819
1872
1964
2032
2046
1984
1867
1747
1695
1725
1808
1904
1959
1958
1892
1791
1730
1744
1807
1891
1966
1979
1921
1830
1757
1735
1775
1865
1964
2000
1951
1855
1774
1728
1762
1842
1909
1943
1915
1826
1714
1645
1680
1801
1947
2096
2175
2174
2144
2111
2077
2059
2070
2021
1921
1779
1585
1379
1239
1201
1284
1399
1501
1555
1535
1510
1502
1555
1667
1787
1875
1918
1874
1805
1733
1727
1791
1904
1997
2064
2059
1998
1920
1891
1925
2021
2132
2223
2225
2139
2015
1920
1911
1986
2082
2160
2187
2139
2046
1990
1985
2032
2128
2226
2270
2246
2161
2081
2030
2038
2129
2224
2289
2288
2213
2123
2057
2059
2128
2243
2333
2358
2310
2238
2173
2173
2229
2307
2406
2453
2432
2342
2240
2194
2241
2346
2448
2525
2529
2457
2356
2280
2258
2300
2370
2418
2416
2357
2272
2183
2152
2183
2257
2329
2343
2289
2191
2085
2000
1985
2017
2080
2127
2123
2042
1948
1875
1860
1913
1984
2045
2045
1974
1861
1776
1746
1807
1907
2010
2051
2010
1910
1815
1792
1850
1941
2027
2062
2032
1940
1840
1773
1768
1823
1906
1983
2006
1968
1875
1794
1779
1811
1904
1978
2003
1991
1915
1829
1763
1773
1829
1921
2000
2021
1962
1856
1777
1767
1839
1946
2028
2047
2006
1905
1798
1757
1792
1883
1968
2019
2007
1936
1863
1848
1898
2005
2111
2157
2128
2039
1947
1877
1882
1942
2045
2139
2151
2075
1951
1850
1805
1827
1893
1959
1995
1967
1861
1754
1700
1729
1808
1904
1973
1977
1905
1795
1712
1714
1793
1903
1984
2001
1951
1872
1797
1757
1795
1882
1946
1968
1904
1786
1692
1663
1723
1839
1927
1973
1941
1840
1719
1661
1694
1823
1979
2111
2181
2199
2176
2135
2102
2087
2064
2025
1939
1779
1565
1353
1217
1209
1306
1437
1565
1622
1610
1584
1535
1583
1687
1808
1913
1959
1927
1868
1813
1789
1841
1939
2031
2080
2037
1953
1870
1840
1887
2009
2128
2191
2177
2098
1989
1907
1904
1983
2091
2170
2205
2158
2064
1975
1949
2005
2107
2186
2245
2240
2161
2086
2035
2081
2176
2272
2341
2320
2221
2112
2033
2033
2128
2245
2347
2395
2383
2299
2219
2198
2238
2313
2391
2432
2411
2333
2267
2251
2271
2335
2427
2490
2496
2431
2332
2256
2247
2303
2399
2491
2512
2425
2281
2160
2112
2159
2244
2306
2320
2261
2149
2021
1942
1951
2027
2125
2155
2127
2032
1939
1892
1898
1966
2065
2133
2128
2057
1936
1833
1789
1827
1911
2005
2085
2082
1994
1899
1827
1826
1906
2002
2059
2032
1959
1868
1805
1802
1866
1918
1982
1994
1931
1854
1792
1771
1825
1922
2015
2074
2046
1975
1892
1840
1851
1919
2022
2097
2096
2009
1911
1858
1852
1894
1975
2061
2089
2033
1947
1869
1840
1889
1957
2032
2083
2062
1977
1897
1853
1873
1951
2067
2143
2159
2113
2027
1952
1935
1982
2083
2160
2183
2146
2064
1965
1902
1905
1973
2055
2082
2032
1938
1855
1813
1829
1909
2006
2070
2081
2025
1933
1850
1821
1856
1955
2054
2064
1985
1856
1743
1712
1770
1885
2003
2069
2054
1970
1877
1830
1843
1908
1987
2019
1983
1891
1799
1745
1781
1891
2031
2175
2285
2318
2293
2241
2190
2173
2167
2134
2064
1908
1695
1502
1399
1391
1444
1535
1644
1691
1680
1648
1627
1679
1792
1941
2045
2063
2000
1919
1841
1802
1841
1939
2047
2129
2127
2060
1964
1907
1927
2031
2140
2207
2190
2113
2020
1969
1987
2077
2177
2249
2260
2203
2091
2000
1968
2003
2124
2225
2286
2273
2197
2112
2051
2064
2146
2246
2303
2293
2224
2132
2054
2028
2111
2211
2313
2361
2322
2245
2182
2176
2251
2368
2458
2498
2469
2374
2281
2226
2229
2297
2387
2454
2449
2367
2286
2222
2215
2272
2348
2416
2431
2370
2256
2151
2085
2102
2187
2288
2326
2277
2159
2023
1936
1930
1989
2086
2147
2138
2064
1953
1872
1847
1907
2016
2103
2121
2070
1963
1843
1795
1845
1959
2064
2111
2077
1972
1872
1825
1843
1919
1993
2037
2029
1951
1872
1808
1783
1842
1945
2032
2080
2043
1945
1840
1806
1865
1949
2005
2026
1973
1876
1803
1774
1808
1888
1977
2035
2026
1945
1856
1775
1770
1854
1986
2098
2119
2046
1925
1815
1767
1798
1892
1995
2067
2075
2013
1935
1876
1885
1955
2047
2129
2134
2065
1959
1874
1871
1926
2006
2069
2085
2019
1931
1834
1785
1818
1919
2006
2032
1983
1872
1769
1709
1747
1845
1945
2013
2003
1932
1855
1787
1776
1849
1945
2033
2067
2019
1920
1809
1767
1806
1883
1958
2001
2000
1926
1811
1717
1705
1771
1872
1970
2023
2002
1961
1936
1970
2079
2229
2326
2326
2236
2069
1879
1754
1704
1702
1709
1698
1653
1569
1482
1456
1507
1634
1758
1851
1885
1868
1817
1771
1761
1835
1935
2023
2065
2030
1935
1854
1808
1834
1917
2001
2064
2070
2016
1941
1879
1882
1954
2047
2139
2151
2112
2019
1979
1966
2006
2112
2205
2231
2174
2064
1971
1937
1981
2085
2173
2224
2227
2170
2101
2042
2054
2117
2199
2272
2288
2256
2176
2111
2105
2157
2240
2331
2365
2329
2241
2150
2112
2165
2257
2354
2425
2419
2327
2225
2149
2173
2240
2313
2366
2351
2269
2163
2070
2033
2094
2176
2255
2286
2248
2131
2006
1942
1981
2079
2159
2197
2180
2096
1972
1889
1899
1979
2066
2110
2115
2031
1911
1814
1780
1830
1921
2029
2093
2057
1942
1824
1764
1810
1938
2064
2125
2106
2005
1891
1811
1802
1859
1948
2025
2057
1999
1905
1828
1812
1872
1977
2067
2097
2036
1930
1855
1840
1883
1959
2033
2086
2065
1970
1872
1808
1809
1895
2013
2094
2083
1991
1904
1837
1831
1872
1949
2036
2074
2033
1955
1886
1853
1895
1999
2102
2167
2156
2063
1934
1847
1845
1910
2001
2073
2082
2001
1881
1787
1761
1818
1923
2017
2054
2000
1903
1790
1729
1773
1872
1982
2039
2032
1947
1849
1786
1792
1871
1958
2023
2001
1938
1838
1747
1722
1763
1855
1936
1968
1922
1834
1749
1712
1767
1847
1923
1984
1984
1923
1873
1883
1957
2105
2243
2327
2310
2195
2025
1856
1749
1727
1729
1737
1721
1653
1535
1472
1457
1535
1675
1779
1850
1870
1813
1732
1677
1693
1777
1879
1954
1984
1959
1887
1821
1821
1879
1984
2099
2155
2111
2015
1921
1874
1895
1963
2047
2100
2095
2020
1926
1861
1874
1959
2069
2157
2179
2121
2003
1887
1872
1936
2003
2080
2118
2068
1987
1943
1929
1983
2086
2171
2221
2207
2120
2014
1959
1984
2078
2189
2305
2366
2326
2224
2160
2163
2209
2285
2341
2358
2311
2213
2099
2032
2064
2159
2260
2322
2305
2209
2098
2007
2000
2072
2163
2230
2235
2161
2065
1990
1968
1991
2059
2106
2115
2064
1947
1840
1769
1763
1840
1949
2026
2037
1966
1867
1808
1825
1896
1957
2014
2022
1962
1872
1789
1763
1808
1884
1959
2000
1964
1863
1790
1761
1790
1866
1949
2001
1991
1915
1827
1767
1767
1840
1936
2013
2022
1943
1827
1745
1730
1797
1904
1990
2012
1969
1895
1812
1749
1750
1846
1953
2015
2025
1943
1825
1746
1765
1839
1958
2080
2116
2062
1950
1863
1825
1849
1936
2014
2069
2061
1983
1891
1838
1840
1911
2000
2054
2029
1938
1830
1744
1757
1825
1906
1987
2023
1979
1879
1771
1703
1725
1808
1898
1949
1947
1893
1820
1776
1785
1851
1934
1983
1983
1904
1808
1739
1734
1808
1920
2003
2032
1969
1829
1713
1687
1723
1818
1923
2006
2032
2006
1981
1974
2039
2163
2249
2258
2193
2035
1838
1661
1564
1535
1589
1631
1623
1583
1517
1488
1535
1653
1799
1936
2005
1995
1917
1835
1791
1808
1877
1979
2070
2067
1984
1885
1823
1843
1932
2057
2161
2189
2135
2026
1927
1902
1939
2038
2146
2209
2181
2093
1993
1936
1962
2061
2175
2242
2239
2162
2060
1977
1974
2060
2145
2215
2252
2219
2147
2076
2070
2121
2202
2283
2320
2294
2214
2130
2096
2143
2247
2369
2450
2447
2355
2241
2160
2143
2210
2304
2383
2405
2361
2266
2187
2167
2209
2288
2331
2363
2346
2251
2151
2096
2103
2176
2249
2287
2266
2189
2073
1973
1954
2015
2109
2155
2139
2068
1969
1886
1855
1906
1999
2077
2101
2062
1942
1835
1791
1808
1873
1967
2038
2027
1943
1856
1793
1782
1846
1925
2000
2031
1973
1875
1798
1767
1811
1905
1997
2056
2025
1936
1847
1803
1839
1915
1989
2031
2026
1955
1856
1776
1766
1835
1935
2018
2043
2000
1904
1829
1813
1854
1927
2006
2027
1987
1904
1836
1786
1795
1894
1998
2070
2068
1999
1885
1804
1792
1872
2011
2128
2167
2128
2018
1923
1872
1903
1985
2064
2083
2032
1937
1833
1754
1751
1813
1904
1968
1968
1904
1792
1711
1717
1802
1904
1981
2006
1951
1838
1741
1707
1749
1847
1945
2000
1999
1926
1823
1738
1719
1781
1872
1937
1957
1887
1771
1678
1655
1701
1779
1863
1908
1885
1840
1835
1875
1986
2155
2297
2341
2252
2064
1847
1663
1535
1516
1521
1520
1495
1445
1392
1382
1424
1535
1691
1794
1831
1804
1719
1658
1659
1727
1843
1936
1991
1977
1923
1861
1841
1887
1975
2066
2122
2112
2031
1936
1872
1873
1959
2045
2125
2176
2150
2059
1956
1915
1961
2062
2153
2199
2171
2087
1991
1952
1981
2063
2161
2234
2249
2191
2101
2039
2046
2107
2193
2271
2295
2251
2158
2067
2059
2122
2224
2304
2352
2346
2279
2197
2157
2176
2269
2339
2383
2397
2352
2270
2187
2157
2208
2290
2379
2417
2371
2262
2160
2111
2114
2166
2256
2309
2260
2151
2055
1997
2014
2079
2153
2215
2219
2131
1984
1874
1842
1890
1974
2047
2075
2029
1922
1827
1777
1808
1882
1962
2006
2006
1929
1834
1780
1808
1884
1979
2061
2059
1971
1856
1747
1721
1799
1927
2033
2077
2019
1901
1778
1696
1703
1798
1911
1984
1983
1919
1837
1776
1777
1831
1918
1995
1999
1927
1818
1735
1716
1785
1883
1949
1984
1950
1854
1767
1730
1781
1869
1970
2055
2032
1920
1802
1729
1765
1883
2025
2119
2113
2018
1904
1824
1811
1893
2010
2117
2148
2096
1968
1863
1827
1860
1890
1923
1959
1946
1870
1776
1703
1707
1791
1891
1949
1942
1874
1776
1695
1678
1738
1840
1939
1977
1943
1836
1698
1638
1655
1747
1863
1937
1954
1899
1802
1729
1730
1786
1847
1879
1893
1839
1718
1616
1603
1683
1807
1919
2006
2042
2020
1978
2006
2113
2202
2242
2220
2096
1882
1638
1421
1303
1307
1354
1417
1451
1435
1402
1395
1454
1573
1712
1812
1861
1855
1775
1691
1666
1728
1848
1955
2006
1987
1913
1831
1794
1845
1951
2058
2133
2157
2099
1991
1907
1890
1948
2041
2127
2148
2103
2018
1947
1926
1979
2085
2160
2211
2192
2096
1984
1919
1922
2000
2113
2218
2261
2215
2131
2064
2052
2122
2221
2299
2341
2310
2223
2128
2089
2134
2229
2327
2411
2407
2336
2249
2189
2203
2289
2394
2464
2463
2384
2268
2176
2165
2224
2316
2394
2429
2368
2255
2147
2103
2133
2229
2338
2402
2374
2259
2124
2001
1968
2021
2114
2178
2176
2110
1991
1896
1857
1892
1991
2087
2115
2095
2019
1923
1857
1860
1920
2000
2053
2026
1946
1819
1732
1767
1863
1975
2047
2071
2015
1921
1842
1802
1843
1936
2019
2032
1967
1873
1789
1744
1798
1905
1998
2064
2046
1960
1857
1785
1788
1869
1957
2013
2017
1948
1857
1776
1744
1797
1929
2062
2107
2062
1937
1824
1781
1809
1903
1994
2039
2041
1969
1863
1786
1772
1833
1939
2047
2096
2047
1936
1827
1807
1878
1995
2082
2119
2115
2043
1968
1927
1942
2001
2066
2113
2096
1994
1872
1776
1738
1797
1903
1977
1990
1947
1861
1783
1766
1813
1904
1978
2018
1983
1881
1776
1735
1775
1849
1926
1968
1937
1846
1775
1734
1763
1852
1957
2047
2061
1971
1850
1738
1694
1744
1835
1926
1983
1981
1927
1884
1899
1990
2146
2306
2387
2321
2154
1936
1747
1637
1616
1607
1600
1559
1467
1359
1310
1346
1486
1655
1776
1855
1859
1797
1717
1677
1713
1814
1930
2014
2029
1968
1885
1821
1839
1938
2084
2191
2194
2121
1998
1895
1849
1882
1968
2071
2119
2078
1999
1919
1882
1924
2035
2139
2183
2153
2064
1977
1933
1967
2065
2175
2263
2281
2215
2106
2021
2014
2071
2161
2279
2352
2336
2257
2179
2139
2169
2256
2346
2398
2379
2282
2163
2105
2121
2214
2339
2437
2466
2411
2298
2203
2186
2234
2310
2393
2442
2411
2288
2171
2110
2122
2192
2277
2339
2321
2240
2143
2072
2066
2129
2199
2227
2207
2143
2039
1951
1919
1955
2039
2110
2139
2099
1993
1886
1840
1882
1959
2046
2106
2096
2007
1903
1819
1812
1895
2010
2096
2113
2023
1904
1808
1793
1869
1989
2087
2119
2062
1967
1860
1814
1838
1893
1963
2029
2025
1955
1855
1806
1825
1916
2033
2137
2161
2082
1953
1857
1827
1865
1936
2015
2064
2042
1947
1846
1799
1840
1937
2043
2095
2069
1983
1867
1790
1807
1889
2005
2103
2123
2074
1984
1915
1895
1947
2055
2142
2166
2137
2055
1957
1907
1931
2002
2081
2138
2123
2043
1936
1853
1841
1904
1985
2068
2076
2002
1907
1829
1803
1842
1936
2022
2065
2023
1913
1801
1739
1773
1887
1997
2062
2065
1969
1855
1791
1805
1885
1974
2064
2069
1990
1868
1762
1728
1763
1856
1979
2077
2070
2002
1949
1951
2043
2195
2332
2399
2352
2186
1985
1825
1743
1719
1715
1727
1707
1654
1584
1526
1529
1623
1763
1881
1958
1937
1861
1792
1755
1793
1897
2000
2068
2053
1973
1874
1809
1833
1909
2019
2113
2133
2069
1966
1886
1885
1973
2113
2230
2272
2228
2126
2014
1959
1984
2064
2143
2186
2165
2102
2029
1986
2007
2102
2192
2262
2247
2171
2059
1955
1946
2023
2131
2235
2295
2291
2210
2128
2095
2114
2176
2263
2338
2351
2295
2211
2128
2128
2197
2307
2398
2416
2363
2257
2164
2130
2183
2262
2339
2375
2347
2242
2125
2064
2083
2157
2239
2287
2273
2177
2063
1968
1950
1993
2083
2159
2166
2099
1978
1890
1857
1879
1954
2034
2082
2064
1982
1902
1856
1867
1921
1968
1996
1993
1930
1847
1792
1795
1856
1939
2015
2060
2007
1910
1821
1776
1814
1905
1995
2039
2010
1915
1808
1743
1758
1845
1962
2047
2065
1991
1888
1807
1786
1837
1904
1968
1995
1936
1859
1798
1779
1833
1940
2031
2075
2054
1942
1835
1769
1778
1862
1957
2029
2026
1953
1856
1792
1805
1874
1954
2033
2059
1995
1902
1828
1797
1839
1923
2017
2079
2047
1949
1851
1794
1801
1858
1923
1968
1951
1881
1791
1716
1718
1786
1872
1957
1968
1907
1814
1739
1725
1783
1875
1952
2001
2007
1950
1837
1744
1745
1840
1931
1986
2001
1928
1796
1680
1633
1680
1792
1895
1939
1904
1808
1739
1735
1836
1984
2127
2243
2290
2235
2119
2000
1936
1919
1920
1891
1779
1613
1449
1345
1330
1431
1591
1747
1835
1834
1769
1708
1686
1733
1823
1904
1936
1917
1827
1731
1693
1728
1838
1965
2057
2065
1975
1859
1766
1763
1840
1949
2055
2090
2045
1947
1870
1834
1872
1959
2039
2092
2077
1993
1906
1819
1815
1891
1998
2095
2134
2087
1986
1904
1895
1961
2064
2169
2213
2160
2032
1919
1874
1927
2022
2144
2233
2234
2158
2067
2016
2032
2112
2199
2274
2284
2228
2141
2063
2038
2102
2185
2254
2291
2256
2147
2027
1975
2003
2111
2199
2240
2206
2098
1985
1910
1920
1972
2035
2073
2045
1970
1872
1798
1793
1856
1936
1982
1984
1916
1792
1694
1662
1702
1787
1893
1953
1908
1797
1728
1708
1744
1832
1907
1968
1980
1919
1812
1725
1682
1734
1835
1911
1953
1911
1810
1713
1680
1718
1823
1915
1951
1931
1838
1729
1664
1680
1764
1857
1933
1936
1881
1789
1714
1701
1756
1847
1937
1982
1933
1815
1713
1687
1760
1872
1964
1999
1963
1869
1770
1699
1703
1791
1926
2001
2000
1918
1817
1755
1758
1829
1921
1994
2019
1967
1843
1739
1686
1718
1804
1879
1921
1901
1813
1728
1686
1712
1776
1854
1905
1903
1830
1743
1669
1675
1727
1805
1872
1889
1831
1739
1648
1621
1679
1794
1911
1962
1935
1856
1778
1723
1722
1776
1847
1874
1859
1792
1698
1627
1625
1746
1910
2065
2161
2176
2141
2033
1946
1929
1939
1922
1858
1754
1569
1373
1251
1251
1355
1491
1616
1659
1643
1584
1535
1552
1664
1782
1879
1920
1887
1794
1701
1664
1708
1819
1934
2000
1999
1925
1828
1777
1797
1889
1999
2086
2095
2018
1914
1823
1802
1867
1961
2043
2070
2031
1935
1833
1807
1872
1995
2115
2182
2181
2096
1968
1887
1895
1975
2090
2181
2171
2102
2018
1943
1935
2014
2134
2219
2248
2198
2076
1982
1968
2032
2155
2294
2371
2375
2294
2191
2130
2141
2206
2281
2334
2342
2273
2170
2087
2059
2115
2203
2256
2288
2255
2157
2030
1970
1985
2054
2127
2157
2102
1995
1895
1821
1822
1901
1977
2026
2031
1970
1871
1779
1755
1806
1893
1968
2014
1971
1875
1776
1739
1782
1883
1990
2055
2018
1935
1846
1770
1761
1833
1927
2013
2030
1968
1879
1792
1747
1782
1857
1930
1969
1934
1838
1743
1703
1744
1837
1914
1959
1952
1885
1776
1719
1715
1791
1879
1931
1936
1872
1819
1789
1785
1857
1957
2032
2047
1986
1878
1777
1712
1727
1827
1966
2064
2074
2013
1916
1845
1866
1941
2034
2103
2107
2026
1910
1821
1803
1859
1968
2059
2089
2046
1965
1847
1803
1815
1863
1924
1969
1957
1872
1770
1701
1714
1825
1939
2013
2003
1919
1809
1741
1728
1787
1882
1971
1990
1939
1851
1759
1739
1777
1863
1947
2002
1999
1902
1762
1643
1615
1679
1785
1893
1937
1921
1872
1845
1892
2027
2193
2333
2399
2343
2176
1957
1786
1689
1658
1659
1655
1593
1472
1362
1321
1363
1500
1657
1775
1840
1810
1729
1673
1690
1757
1849
1936
1979
1966
1903
1837
1815
1865
1979
2102
2177
2179
2105
1997
1936
1950
2031
2130
2224
2231
2156
2046
1969
1968
2025
2117
2197
2235
2186
2096
2014
1986
2026
2119
2211
2262
2256
2160
2053
1984
1985
2079
2193
2286
2311
2274
2192
2130
2119
2176
2291
2397
2448
2439
2363
2243
2190
2224
2335
2467
2544
2519
2422
2293
2202
2215
2304
2401
2459
2454
2416
2322
2230
2192
2224
2298
2373
2394
2330
2205
2081
2003
2032
2128
2223
2276
2262
2173
2070
1996
1984
2039
2117
2192
2185
2117
2010
1919
1887
1935
2022
2112
2139
2105
1999
1887
1819
1850
1954
2068
2125
2107
2019
1930
1863
1857
1919
1988
2082
2099
2042
1947
1879
1877
1936
2018
2106
2159
2141
2039
1937
1892
1906
1971
2064
2119
2099
2003
1897
1827
1829
1891
1968
2034
2041
1977
1886
1849
1863
1922
2011
2098
2158
2135
2043
1950
1906
1942
2022
2085
2124
2118
2054
1953
1879
1898
1982
2089
2167
2187
2130
2032
1943
1915
1971
2075
2176
2229
2221
2143
2047
1969
1983
2057
2124
2163
2133
2026
1899
1814
1826
1902
2005
2103
2113
2047
1950
1870
1843
1887
1984
2081
2110
2083
1983
1870
1819
1853
1909
1977
2030
2023
1937
1839
1764
1780
1886
2011
2112
2128
2057
1930
1819
1772
1805
1898
1995
2064
2045
1986
1931
1931
2045
2219
2394
2512
2497
2361
2151
1937
1804
1738
1712
1693
1639
1533
1407
1335
1360
1488
1648
1802
1915
1936
1870
1791
1758
1809
1921
2016
2093
2097
2026
1938
1890
1919
2005
2117
2192
2206
2139
2027
1936
1922
1983
2092
2174
2208
2187
2117
2042
1981
2003
2086
2176
2242
2243
2174
2085
2027
2038
2114
2239
2345
2383
2325
2219
2108
2065
2112
2218
2329
2383
2357
2274
2192
2145
2188
2285
2373
2469
2485
2414
2330
2262
2256
2317
2412
2485
2512
2468
2391
2304
2262
2303
2400
2508
2555
2503
2391
2278
2199
2191
2274
2384
2457
2445
2352
2239
2145
2112
2151
2213
2266
2271
2217
2114
2016
1966
1978
2042
2133
2177
2138
2035
1938
1899
1920
1997
2071
2126
2117
2034
1935
1856
1851
1911
1988
2067
2089
2055
1982
1917
1895
1932
1999
2064
2096
2082
2003
1901
1864
1889
1969
2064
2123
2107
2003
1892
1797
1783
1858
1969
2079
2112
2042
1935
1855
1843
1907
1994
2074
2104
2070
1975
1895
1857
1889
1974
2064
2117
2097
2000
1875
1784
1761
1842
1955
2046
2080
2023
1911
1819
1794
1856
1967
2069
2122
2108
2032
1933
1874
1893
1968
2066
2133
2127
2061
1974
1919
1919
1974
2077
2170
2209
2179
2101
2025
1994
2038
2112
2151
2144
2079
1968
1877
1839
1869
1950
2032
2080
2064
1989
1888
1802
1808
1900
2012
2087
2095
2031
1915
1819
1786
1834
1929
2021
2062
2017
1936
1859
1814
1840
1895
1959
2015
2015
1962
1886
1813
1787
1830
1919
1986
2021
1978
1901
1872
1921
2054
2223
2387
2480
2458
2327
2139
1975
1874
1852
1853
1819
1727
1587
1451
1373
1390
1523
1696
1842
1914
1903
1809
1749
1748
1818
1927
2022
2067
2062
1990
1901
1852
1898
1991
2083
2149
2165
2119
2031
1949
1936
1993
2066
2130
2175
2144
2037
1967
1946
1998
2096
2180
2235
2229
2161
2078
2014
2001
2070
2162
2230
2245
2205
2122
2053
2064
2134
2229
2301
2317
2275
2192
2123
2096
2137
2236
2321
2361
2341
2271
2192
2154
2193
2301
2401
2465
2475
2417
2318
2238
2224
2276
2353
2402
2411
2368
2291
2221
2193
2238
2314
2374
2407
2366
2259
2141
2061
2060
2125
2194
2240
2224
2142
2033
1943
1933
1988
2078
2137
2151
2091
1969
1863
1813
1855
1949
2047
2119
2093
1982
1870
1792
1792
1877
1995
2087
2122
2058
1958
1879
1859
1911
2003
2081
2095
2031
1931
1839
1798
1839
1925
2015
2073
2045
1968
1869
1808
1810
1872
1949
2017
2032
1989
1911
1840
1815
1863
1953
2013
2025
1982
1896
1806
1772
1826
1941
2035
2073
2029
1931
1822
1763
1790
1885
1991
2080
2087
2002
1883
1789
1759
1821
1921
2013
2056
2006
1902
1807
1777
1837
1940
2030
2078
2061
1977
1883
1811
1835
1923
2032
2125
2155
2095
1981
1891
1883
1971
2095
2158
2146
2035
1885
1764
1723
1776
1870
1962
2028
2022
1920
1809
1747
1759
1834
1934
2001
1990
1920
1842
1783
1792
1872
1975
2052
2064
1986
1863
1776
1761
1803
1869
1941
1994
1970
1894
1805
1735
1743
1799
1872
1937
1970
1947
1905
1899
1952
2069
2227
2361
2416
2349
2174
1968
1834
1776
1762
1747
1706
1616
1503
1436
1437
1521
1682
1840
1946
1968
1902
1773
1664
1634
1694
1825
1939
1994
1974
1885
1799
1771
1826
1929
2019
2068
2059
1994
1915
1862
1876
1963
2064
2142
2145
2069
1966
1886
1877
1968
2074
2130
2151
2118
2032
1951
1901
1931
2027
2128
2171
2155
2070
1971
1920
1921
1995
2109
2183
2185
2130
2037
1969
1959
2019
2126
2238
2314
2298
2219
2119
2063
2084
2152
2240
2311
2317
2246
2138
2058
2058
2130
2226
2307
2320
2246
2143
2064
2027
2084
2161
2237
2235
2189
2084
1957
1891
1911
1991
2096
2137
2116
2032
1921
1831
1815
1891
1984
2037
2035
1980
1871
1783
1752
1802
1894
1989
2032
1991
1883
1770
1706
1737
1836
1921
1979
1983
1911
1829
1783
1793
1856
1911
1952
1973
1913
1821
1759
1744
1791
1887
1977
2022
2002
1903
1796
1753
1794
1885
1961
1983
1939
1841
1750
1709
1729
1821
1913
1987
1997
1903
1787
1721
1723
1805
1913
2003
2033
1982
1862
1755
1719
1776
1882
1965
2001
1973
1898
1803
1732
1735
1808
1904
1980
2007
1948
1840
1760
1781
1887
2000
2093
2119
2064
1959
1870
1829
1858
1926
2000
2055
2010
1906
1790
1737
1734
1801
1888
1980
2005
1947
1853
1745
1712
1790
1886
1974
2011
1969
1858
1749
1679
1702
1792
1893
1962
1956
1878
1791
1729
1744
1828
1932
1991
1969
1889
1778
1689
1664
1701
1789
1872
1921
1909
1864
1815
1840
1949
2121
2274
2359
2343
2211
2043
1915
1855
1818
1809
1785
1703
1582
1443
1335
1328
1437
1607
1761
1874
1899
1840
1776
1741
1773
1844
1919
1975
1981
1904
1809
1776
1810
1903
2000
2093
2125
2075
1968
1887
1872
1927
2025
2113
2149
2111
2021
1929
1887
1909
1986
2070
2126
2112
2038
1959
1899
1904
1984
2099
2186
2201
2123
2000
1920
1913
1991
2112
2217
2256
2229
2117
2013
1971
2006
2112
2221
2287
2294
2223
2145
2107
2129
2218
2304
2374
2387
2320
2209
2119
2127
2211
2314
2390
2413
2355
2245
2134
2067
2095
2179
2273
2332
2322
2231
2112
2015
2001
2064
2147
2199
2179
2096
1998
1935
1917
1950
2011
2077
2096
2054
1947
1847
1807
1837
1910
1978
2004
1967
1872
1792
1747
1777
1867
1968
2055
2079
2010
1908
1808
1776
1811
1893
1984
2035
2006
1913
1822
1776
1799
1877
1984
2032
2022
1958
1863
1792
1792
1853
1954
2039
2063
1992
1872
1759
1715
1759
1855
1955
2006
2003
1923
1841
1811
1840
1904
1979
2031
2000
1904
1799
1734
1746
1834
1931
2013
2033
1973
1874
1795
1772
1827
1921
2010
2036
1988
1899
1791
1749
1803
1904
2018
2093
2094
2009
1917
1857
1867
1936
2027
2103
2126
2073
1968
1874
1843
1877
1968
2033
2034
1969
1866
1762
1712
1744
1834
1933
1998
1984
1894
1765
1680
1679
1760
1870
1955
1997
1962
1856
1763
1727
1776
1870
1958
2001
1987
1921
1839
1773
1776
1850
1937
1985
1954
1863
1761
1679
1679
1773
1901
2000
2075
2075
2015
1993
2035
2156
2262
2325
2287
2135
1919
1711
1557
1479
1488
1535
1584
1577
1522
1482
1472
1531
1658
1787
1874
1918
1888
1791
1699
1683
1741
1840
1946
2011
2001
1925
1834
1781
1803
1904
2002
2071
2076
2006
1920
1840
1845
1919
2030
2128
2161
2116
2015
1927
1902
1946
2044
2132
2178
2153
2063
1963
1915
1951
2046
2160
2238
2253
2174
2071
1991
1984
2076
2167
2225
2240
2182
2084
1999
1994
2080
2193
2288
2341
2321
2224
2115
2077
2134
2243
2365
2434
2421
2337
2214
2128
2123
2205
2326
2403
2437
2395
2292
2170
2109
2112
2174
2231
2256
2218
2115
1984
1919
1925
1986
2078
2142
2140
2067
1957
1873
1859
1895
1963
2031
2053
1985
1886
1806
1776
1808
1897
1971
2018
1988
1881
1789
1747
1791
1892
1994
2047
2045
1973
1869
1788
1785
1855
1936
1984
2000
1967
1873
1797
1776
1827
1919
1989
2031
2005
1916
1806
1742
1765
1849
1967
2039
2044
1967
1849
1756
1745
1810
1911
2004
2047
1978
1863
1771
1731
1757
1833
1923
1992
1983
1889
1787
1745
1786
1867
1948
1988
1966
1872
1776
1722
1735
1810
1915
2004
2042
2001
1911
1815
1761
1805
1899
1968
2000
1969
1866
1749
1689
1731
1846
1968
2038
2065
2027
1937
1873
1887
1979
2079
2160
2161
2111
2005
1920
1889
1933
2011
2078
2101
2046
1933
1805
1732
1748
1829
1920
1983
1969
1882
1791
1755
1760
1802
1869
1925
1951
1901
1795
1717
1686
1735
1825
1931
2002
2000
1902
1767
1681
1701
1793
1903
1967
1963
1888
1794
1712
1696
1747
1840
1901
1917
1898
1843
1801
1817
1936
2111
2267
2379
2395
2307
2163
1997
1886
1831
1796
1737
1622
1456
1310
1236
1254
1369
1535
1690
1771
1759
1697
1631
1619
1684
1783
1881
1951
1955
1885
1801
1751
1787
1904
2035
2122
2111
2020
1905
1810
1779
1851
1968
2069
2118
2095
1985
1876
1838
1861
1949
2043
2119
2119
2039
1969
1930
1963
2073
2179
2253
2255
2183
2091
1990
1983
2053
2147
2224
2252
2214
2128
2064
2038
2096
2194
2290
2345
2324
2257
2180
2128
2119
2166
2253
2346
2385
2347
2269
2203
2217
2309
2390
2439
2455
2401
2301
2224
2205
2246
2322
2385
2427
2388
2292
2189
2130
2131
2193
2255
2288
2252
2146
2032
1936
1911
1974
2087
2160
2170
2115
2000
1899
1840
1865
1949
2029
2077
2041
1946
1855
1808
1819
1885
1968
2042
2055
1989
1890
1799
1791
1853
1947
2033
2055
1979
1850
1744
1714
1776
1879
1954
1989
1969
1889
1807
1761
1776
1859
1968
2043
2031
1953
1855
1774
1771
1833
1933
1998
2022
1978
1884
1787
1741
1775
1865
1955
2000
1984
1911
1825
1764
1777
1858
1965
2032
2026
1932
1799
1717
1711
1778
1885
1971
2003
1957
1865
1774
1741
1803
1926
2031
2078
2027
1909
1807
1761
1789
1869
1967
2011
2006
1952
1862
1794
1782
1856
1965
2063
2114
2096
2013
1933
1894
1938
2018
2101
2146
2117
2032
1954
1926
1963
2032
2105
2157
2138
2047
1933
1839
1820
1870
1949
2005
2023
1971
1873
1775
1745
1797
1902
2003
2059
2018
1923
1817
1751
1762
1840
1909
1987
1994
1923
1809
1725
1713
1777
1903
2018
2064
2015
1915
1808
1754
1759
1814
1895
1947
1947
1903
1854
1845
1938
2108
2290
2434
2481
2399
2235
2041
1914
1856
1841
1810
1734
1631
1505
1391
1344
1396
1532
1695
1808
1826
1787
1728
1702
1747
1842
1946
2007
2000
1934
1840
1776
1793
1875
1987
2087
2131
2094
1986
1902
1885
1951
2035
2129
2168
2146
2059
1967
1919
1939
2011
2114
2205
2227
2161
2047
1962
1937
1993
2098
2192
2224
2199
2127
2067
2037
2081
2157
2199
2240
2247
2192
2112
2047
2065
2143
2239
2319
2346
2291
2197
2117
2127
2210
2325
2446
2470
2407
2313
2223
2177
2208
2304
2410
2449
2436
2362
2271
2199
2188
2238
2304
2352
2355
2288
2192
2119
2099
2143
2216
2251
2256
2205
2097
1983
1945
1987
2081
2171
2199
2158
2047
1925
1843
1856
1936
2030
2113
2113
2029
1911
1826
1801
1859
1955
2032
2071
2019
1914
1809
1772
1833
1933
2023
2073
2063
1979
1879
1807
1797
1872
1989
2106
2125
2066
1927
1817
1798
1861
1947
2029
2059
1995
1904
1823
1789
1829
1904
1991
2047
2043
1968
1877
1819
1838
1917
2005
2057
2047
1985
1894
1798
1759
1808
1909
2000
2046
2026
1941
1847
1799
1833
1929
2037
2110
2095
1986
1872
1797
1808
1899
1994
2064
2079
2021
1935
1871
1849
1914
2019
2131
2160
2112
2004
1906
1872
1919
2015
2118
2175
2145
2061
1951
1869
1842
1899
1971
2035
2034
1980
1895
1825
1801
1850
1952
2023
2041
1984
1877
1787
1761
1817
1923
2013
2071
2058
1961
1862
1795
1795
1869
1969
2047
2066
2005
1919
1842
1821
1859
1911
1959
1965
1903
1815
1748
1739
1821
1971
2125
2206
2224
2187
2137
2108
2128
2183
2222
2205
2115
1978
1801
1648
1577
1580
1644
1719
1757
1749
1691
1614
1589
1661
1789
1936
2019
2032
1947
1845
1782
1780
1856
1946
2011
2027
1979
1906
1858
1849
1926
2045
2137
2161
2113
2026
1941
1889
1907
1985
2086
2155
2147
2061
1983
1939
1975
2066
2173
2239
2227
2143
2032
1957
1936
2003
2110
2203
2239
2206
2122
2032
2000
2043
2128
2217
2283
2275
2182
2085
2035
2083
2160
2236
2305
2313
2249
2163
2080
2087
2189
2300
2382
2411
2363
2254
2128
2086
2114
2192
2283
2359
2358
2276
2175
2100
2090
2135
2213
2256
2229
2159
2061
1951
1924
1978
2064
2145
2182
2130
1997
1879
1831
1858
1939
2027
2080
2064
1969
1846
1759
1759
1843
1952
2035
2058
1995
1889
1802
1786
1838
1919
2011
2066
2029
1936
1843
1779
1801
1891
1991
2047
2022
1933
1815
1721
1710
1812
1951
2030
2030
1984
1902
1825
1811
1860
1920
1980
2028
2019
1931
1818
1755
1785
1872
1957
2007
1983
1903
1809
1745
1742
1807
1911
2002
2022
1970
1877
1777
1751
1815
1905
1995
2047
2038
1970
1887
1814
1811
1891
1969
2025
2005
1934
1843
1783
1794
1885
2009
2111
2112
2022
1893
1813
1825
1883
1982
2079
2116
2067
1953
1839
1776
1788
1857
1943
2000
1990
1921
1837
1767
1766
1840
1942
2014
2021
1946
1835
1739
1723
1793
1893
1989
2013
1969
1873
1775
1725
1746
1831
1930
1984
1981
1917
1809
1722
1695
1753
1845
1927
1958
1923
1871
1862
1926
2066
2234
2359
2383
2279
2116
1939
1819
1750
1713
1699
1681
1628
1519
1435
1413
1471
1600
1744
1855
1899
1878
1795
1712
1695
1763
1872
1969
2012
1983
1886
1792
1759
1812
1908
2003
2077
2070
2002
1903
1825
1811
1872
1983
2080
2103
2054
1954
1872
1847
1904
1990
2089
2154
2128
2035
1951
1917
1957
2045
2141
2192
2183
2103
2011
1953
1968
2041
2130
2198
2218
2166
2065
1993
1995
2059
2147
2241
2289
2261
2195
2135
2121
2156
2237
2321
2383
2359
2263
2142
2086
2107
2194
2283
2351
2361
2310
2207
2102
2055
2091
2167
2235
2267
2230
2113
1999
1946
1963
2035
2121
2167
2151
2055
1947
1886
1886
1939
2017
2081
2089
2022
1909
1805
1774
1835
1910
1990
2032
1994
1907
1810
1775
1792
1881
1982
2059
2046
1955
1844
1757
1744
1801
1882
1947
1985
1943
1845
1766
1757
1831
1949
2031
2054
2001
1890
1783
1734
1767
1856
1975
2055
2053
1947
1843
1769
1757
1807
1885
1967
2005
1971
1874
1791
1771
1831
1919
1991
2015
1987
1891
1791
1733
1775
1873
1979
2031
2012
1930
1813
1754
1771
1859
1968
2066
2096
2046
1966
1881
1856
1904
2003
2102
2145
2094
1957
1840
1786
1822
1925
2023
2086
2079
1991
1860
1754
1744
1793
1887
1970
1989
1931
1847
1761
1743
1776
1856
1938
1973
1936
1847
1762
1713
1742
1826
1919
1978
1969
1887
1776
1696
1719
1825
1936
2009
2013
1939
1815
1703
1651
1689
1831
1971
2065
2096
2065
2015
2021
2087
2161
2198
2190
2094
1905
1687
1516
1429
1452
1525
1584
1597
1566
1514
1485
1504
1596
1716
1840
1917
1909
1835
1735
1680
1711
1798
1906
1987
2000
1948
1867
1781
1791
1873
1990
2097
2129
2067
1964
1879
1854
1904
2001
2098
2159
2157
2066
1949
1904
1925
2005
2106
2186
2189
2113
2031
1962
1958
2001
2074
2128
2138
2106
2021
1969
1961
2010
2112
2201
2249
2224
2143
2065
2020
2059
2139
2231
2308
2340
2291
2210
2151
2160
2237
2342
2429
2444
2362
2229
2138
2112
2160
2251
2324
2343
2305
2218
2128
2077
2086
2155
2231
2278
2241
2139
2013
1925
1893
1962
2077
2154
2167
2118
2022
1917
1863
1895
1968
2007
2025
1997
1904
1819
1775
1807
1907
2009
2053
2042
1969
1858
1754
1712
1776
1890
1989
2032
1985
1891
1782
1731
1763
1842
1936
2009
2000
1925
1839
1778
1805
1890
1983
2047
2045
1968
1866
1795
1793
1859
1946
2029
2055
1997
1903
1819
1791
1815
1906
2001
2058
2015
1904
1797
1731
1755
1854
1950
2016
2028
1973
1885
1804
1781
1822
1927
2012
2041
1990
1887
1790
1758
1838
1983
2113
2187
2160
2064
1949
1897
1933
2011
2115
2206
2215
2116
1975
1887
1880
1917
1966
2001
2019
1986
1899
1806
1754
1781
1886
1991
2055
2010
1907
1797
1742
1788
1870
1945
1968
1947
1875
1787
1735
1739
1809
1920
2019
2079
2033
1906
1791
1744
1781
1878
1975
2010
1968
1873
1791
1732
1739
1835
1954
2064
2115
2112
2074
2062
2101
2210
2311
2349
2290
2128
1894
1680
1526
1456
1437
1475
1508
1506
1475
1457
1475
1559
1691
1826
1936
1962
1881
1776
1710
1702
1767
1874
1987
2043
2009
1919
1843
1819
1887
2000
2113
2170
2137
2035
1936
1891
1925
2026
2143
2229
2224
2140
2031
1958
1959
2007
2089
2149
2192
2171
2098
2023
1990
2037
2135
2224
2272
2241
2131
2030
1983
2011
2115
2210
2267
2278
2239
2151
2086
2103
2179
2289
2384
2417
2384
2293
2209
2167
2198
2294
2392
2461
2439
2320
2196
2128
2149
2256
2376
2464
2482
2409
2294
2175
2143
2207
2291
2349
2346
2273
2160
2047
1991
2000
2060
2129
2194
2190
2107
1984
1900
1916
1985
2062
2096
2076
1993
1867
1775
1763
1824
1929
2025
2064
2028
1901
1781
1740
1769
1856
1971
2033
2015
1909
1782
1711
1731
1830
1931
1989
1984
1934
1856
1792
1763
1808
1893
1968
2001
1969
1872
1792
1776
1814
1908
1993
2058
2031
1959
1860
1767
1747
1808
1902
1975
1984
1907
1795
1717
1701
1747
1843
1933
1963
1925
1847
1776
1747
1779
1855
1927
1981
1975
1888
1781
1715
1735
1808
1910
1997
2011
1950
1851
1759
1729
1792
1911
2015
2058
2031
1955
1877
1856
1897
2003
2128
2192
2165
2064
1923
1825
1822
1887
1977
2032
2032
1957
1851
1746
1721
1777
1879
1954
1971
1918
1826
1742
1697
1725
1811
1918
1987
1971
1886
1802
1741
1739
1810
1915
1985
1989
1905
1776
1687
1675
1729
1835
1935
1984
1943
1823
1701
1634
1667
1771
1871
1931
1939
1907
1890
1922
2020
2175
2325
2416
2365
2213
1988
1776
1657
1612
1613
1637
1649
1587
1462
1360
1357
1441
1580
1712
1815
1837
1775
1703
1665
1691
1776
1872
1952
1981
1931
1849
1794
1797
1859
1968
2076
2098
2058
1970
1891
1840
1867
1965
2077
2143
2138
2064
1963
1893
1904
1997
2083
2144
2167
2133
2047
1968
1937
1993
2083
2167
2209
2160
2045
1946
1915
1979
2095
2189
2259
2283
2242
2167
2107
2097
2129
2181
2267
2294
2247
2185
2142
2150
2203
2305
2407
2448
2417
2315
2223
2175
2199
2274
2346
2393
2391
2330
2246
2202
2210
2271
2349
2385
2375
2295
2184
2065
2015
2065
2156
2247
2302
2258
2153
2043
1969
1959
2000
2066
2113
2085
2000
1907
1856
1873
1941
2006
2063
2071
2005
1882
1794
1786
1845
1953
2062
2107
2075
1986
1913
1865
1895
1956
2011
2064
2060
1971
1871
1815
1804
1864
1957
2034
2058
1999
1899
1830
1812
1856
1962
2041
2077
2041
1945
1825
1745
1759
1851
1968
2033
2017
1936
1846
1775
1754
1834
1957
2054
2078
2007
1919
1837
1808
1867
1949
2031
2094
2032
1936
1852
1814
1854
1943
2041
2109
2109
2017
1904
1839
1862
1968
2082
2154
2171
2118
2013
1933
1919
1958
2064
2157
2190
2144
2029
1919
1849
1872
1974
2065
2093
2059
1967
1869
1808
1825
1902
1982
2032
2021
1937
1819
1751
1744
1803
1904
2000
2043
2015
1929
1834
1776
1813
1915
2015
2068
2040
1961
1865
1803
1808
1871
1939
2000
2020
1952
1851
1783
1789
1877
2016
2154
2237
2265
2233
2187
2175
2201
2240
2245
2202
2091
1904
1690
1520
1445
1471
1575
1683
1747
1744
1693
1650
1665
1744
1858
1955
2006
1993
1906
1808
1751
1783
1874
1991
2085
2112
2063
1978
1939
1951
2011
2101
2158
2143
2082
1984
1899
1872
1941
2063
2151
2197
2160
2076
1993
1939
1938
2002
2112
2186
2191
2119
2010
1935
1931
2015
2142
2231
2256
2194
2091
1997
1968
2030
2145
2263
2320
2303
2247
2186
2123
2127
2197
2301
2384
2384
2294
2190
2112
2128
2206
2313
2390
2394
2310
2197
2112
2100
2170
2282
2357
2384
2333
2225
2115
2054
2067
2133
2199
2240
2215
2126
2027
1955
1965
2026
2109
2159
2160
2089
1968
1867
1814
1853
1953
2044
2110
2074
1974
1865
1807
1821
1892
1968
2032
2034
1983
1904
1850
1851
1898
1967
2017
2023
1963
1875
1799
1767
1817
1914
1985
2021
1998
1920
1838
1792
1808
1879
1975
2047
2059
1995
1902
1815
1807
1875
1974
2047
2061
1997
1897
1793
1761
1815
1933
2020
2067
2054
1962
1859
1815
1835
1915
1999
2064
2045
1975
1853
1771
1785
1879
1969
2032
2046
1999
1915
1826
1791
1856
1967
2064
2107
2092
2010
1920
1866
1872
1938
2032
2110
2108
2022
1903
1811
1808
1872
1975
2047
2065
1991
1872
1775
1731
1776
1871
1973
2032
2015
1925
1835
1799
1826
1908
2001
2065
2071
2002
1887
1769
1728
1769
1861
1966
2004
1958
1855
1767
1741
1776
1856
1937
1981
1951
1873
1786
1744
1792
1903
2019
2113
2182
2211
2181
2128
2094
2097
2113
2098
2027
1902
1730
1585
1488
1472
1533
1634
1715
1741
1686
1618
1595
1629
1729
1842
1920
1939
1877
1779
1712
1717
1808
1909
1989
2032
1983
1870
1779
1774
1827
1917
2010
2066
2055
1969
1878
1841
1873
1950
2023
2096
2113
2064
1963
1861
1827
1885
2003
2128
2171
2119
2006
1920
1886
1922
2002
2090
2160
2186
2134
2027
1939
1928
2010
2128
2229
2241
2171
2091
2029
2032
2092
2178
2244
2267
2224
2128
2064
2057
2112
2206
2294
2338
2317
2233
2134
2083
2115
2195
2271
2316
2288
2191
2080
2000
1984
2047
2141
2204
2221
2142
2027
1904
1861
1904
2003
2096
2119
2064
1931
1810
1741
1745
1840
1951
2021
2018
1950
1851
1774
1761
1829
1919
1978
1983
1921
1831
1765
1745
1789
1883
1982
2027
1997
1891
1794
1744
1775
1846
1936
2006
2001
1934
1831
1741
1741
1809
1913
2003
2033
1990
1881
1791
1765
1813
1898
1977
2006
1981
1895
1807
1751
1773
1859
1952
2015
2018
1946
1840
1767
1757
1808
1912
2006
2065
2029
1933
1826
1776
1807
1892
1990
2064
2066
1991
1911
1874
1905
1987
2094
2147
2127
2030
1905
1814
1781
1810
1895
1986
2032
1999
1878
1778
1729
1755
1843
1935
1989
1955
1840
1715
1628
1674
1802
1919
1985
1989
1933
1845
1771
1750
1791
1863
1931
1952
1916
1835
1750
1726
1763
1854
1947
2000
1983
1904
1793
1727
1712
1763
1846
1939
1978
1963
1914
1876
1919
2031
2194
2327
2355
2275
2095
1887
1742
1680
1681
1697
1681
1616
1488
1379
1353
1423
1565
1711
1828
1883
1836
1744
1674
1670
1751
1885
2000
2038
2003
1898
1787
1747
1808
1930
2047
2128
2113
2013
1904
1855
1873
1965
2077
2150
2145
2059
1949
1861
1842
1903
2009
2130
2185
2118
2000
1904
1871
1933
2059
2159
2230
2227
2160
2073
1998
1990
2079
2166
2233
2245
2183
2096
2019
2005
2079
2192
2304
2346
2298
2192
2099
2064
2112
2215
2313
2354
2346
2270
2173
2118
2150
2251
2355
2419
2410
2314
2183
2097
2096
2170
2256
2302
2288
2210
2112
2019
1974
2021
2112
2169
2192
2162
2064
1954
1898
1905
1967
2033
2090
2059
1949
1851
1790
1809
1888
1977
2056
2073
2015
1904
1794
1743
1780
1875
1984
2047
2022
1936
1826
1749
1753
1827
1932
2010
2033
1985
1895
1813
1795
1842
1939
2032
2071
2002
1881
1782
1747
1790
1891
1983
2014
1977
1903
1802
1733
1744
1822
1931
2015
2034
1983
1887
1778
1741
1779
1875
1979
2029
1994
1895
1797
1755
1808
1904
1990
2037
2014
1923
1812
1747
1762
1851
1966
2061
2085
2006
1909
1846
1863
1955
2073
2154
2182
2140
2031
1916
1844
1872
1937
1995
2032
2011
1922
1828
1775
1761
1808
1889
1966
1984
1936
1840
1751
1739
1787
1871
1965
2006
1979
1901
1801
1749
1779
1858
1939
1982
1940
1875
1803
1749
1765
1855
1942
1971
1936
1855
1749
1664
1634
1680
1753
1839
1904
1909
1865
1806
1813
1904
2078
2243
2360
2354
2230
2047
1870
1759
1725
1693
1663
1595
1461
1339
1288
1328
1449
1610
1729
1778
1759
1683
1602
1585
1648
1755
1866
1929
1920
1846
1757
1722
1769
1887
2001
2084
2099
2027
1921
1856
1848
1905
2000
2079
2119
2091
2013
1938
1893
1903
1982
2083
2143
2153
2093
2013
1966
1974
2031
2112
2194
2201
2130
2019
1932
1911
1964
2074
2166
2227
2211
2128
2035
2003
2058
2160
2258
2324
2311
2236
2135
2081
2098
2175
2269
2353
2384
2352
2282
2205
2178
2220
2288
2335
2346
2302
2229
2160
2128
2171
2253
2329
2352
2299
2201
2106
2042
2038
2081
2153
2210
2215
2144
2029
1933
1895
1927
2003
2084
2112
2071
1983
1881
1834
1847
1886
1947
2005
2019
1936
1803
1715
1706
1761
1866
1957
2000
1984
1898
1793
1748
1782
1872
1952
1993
1962
1853
1751
1719
1759
1859
1949
2000
2001
1936
1838
1782
1793
1867
1943
1998
2010
1936
1830
1724
1685
1765
1869
1949
1994
1964
1874
1782
1742
1781
1878
1964
2016
2000
1911
1785
1707
1713
1803
1905
1984
2000
1955
1862
1794
1776
1810
1900
1999
2034
1999
1915
1834
1783
1808
1901
2002
2073
2062
1971
1870
1810
1831
1927
2058
2155
2157
2087
1973
1885
1853
1886
1968
2027
2031
1968
1851
1741
1697
1735
1844
1967
2047
2030
1931
1801
1697
1680
1747
1863
1941
1969
1926
1829
1740
1712
1744
1827
1927
1963
1906
1822
1749
1705
1713
1775
1851
1925
1936
1871
1776
1695
1694
1755
1840
1934
1957
1887
1795
1753
1809
1959
2142
2317
2444
2438
2304
2112
1938
1840
1803
1761
1685
1575
1439
1328
1280
1317
1444
1604
1723
1773
1735
1676
1643
1655
1728
1850
1954
1986
1941
1846
1774
1745
1783
1915
2031
2107
2111
2015
1918
1847
1851
1943
2067
2160
2178
2123
2027
1927
1886
1933
2042
2149
2206
2171
2083
1999
1943
1977
2075
2190
2261
2265
2195
2087
2000
2000
2079
2177
2251
2269
2205
2106
2025
2021
2100
2213
2295
2336
2320
2246
2170
2133
2176
2266
2352
2421
2427
2379
2303
2243
2238
2301
2393
2467
2480
2414
2311
2224
2192
2228
2320
2400
2423
2353
2259
2169
2106
2101
2153
2227
2291
2277
2180
2062
1967
1951
2000
2076
2117
2128
2091
1978
1875
1857
1918
2015
2096
2119
2077
1975
1890
1846
1853
1913
2002
2063
2067
1994
1897
1815
1798
1844
1937
2022
2039
2000
1915
1823
1775
1791
1856
1955
2032
2034
1966
1866
1780
1776
1878
2002
2065
2053
1968
1840
1751
1759
1831
1934
2018
2064
2027
1937
1827
1775
1811
1895
1984
2038
2025
1915
1781
1705
1735
1834
1923
1991
2000
1959
1891
1831
1838
1915
2000
2071
2089
2033
1923
1819
1788
1823
1907
1990
2047
2041
1969
1883
1839
1872
1986
2107
2185
2178
2095
1975
1911
1923
2002
2106
2183
2208
2147
2019
1904
1840
1847
1917
2000
2034
2000
1910
1823
1781
1837
1923
2017
2082
2064
1963
1840
1751
1724
1776
1874
1982
2026
1974
1871
1776
1738
1778
1871
1954
2006
2000
1935
1859
1810
1827
1910
2000
2037
2001
1904
1789
1718
1738
1856
2000
2129
2201
2210
2169
2149
2166
2209
2277
2293
2231
2110
1906
1707
1535
1457
1477
1558
1616
1652
1642
1606
1584
1625
1735
1871
1984
2027
1983
1878
1792
1776
1826
1921
2029
2077
2059
1982
1905
1866
1904
2003
2098
2154
2149
2087
1986
1914
1924
1991
2096
2192
2225
2179
2091
2005
1967
2000
2096
2175
2223
2192
2097
2001
1968
2011
2112
2215
2281
2286
2207
2109
2015
1982
2059
2176
2256
2293
2279
2193
2124
2101
2159
2258
2363
2414
2382
2303
2213
2160
2179
2253
2331
2410
2430
2390
2319
2243
2209
2240
2323
2410
2432
2373
2263
2157
2099
2117
2189
2274
2315
2276
2179
2077
2022
2054
2128
2190
2223
2189
2093
1950
1854
1855
1917
2003
2083
2112
2064
1966
1873
1840
1886
1968
2039
2093
2064
1974
1877
1826
1851
1911
2004
2096
2103
2011
1899
1811
1814
1887
1985
2059
2070
2010
1911
1810
1774
1825
1936
2038
2101
2064
1968
1876
1811
1817
1883
1975
2047
2062
2001
1915
1826
1808
1867
1963
2059
2099
2047
1933
1834
1807
1851
1949
2031
2085
2061
1959
1851
1776
1779
1856
1968
2058
2079
2010
1908
1833
1808
1856
1941
2038
2093
2043
1943
1854
1805
1851
1950
2062
2128
2121
2059
1971
1907
1907
1982
2066
2117
2114
2047
1943
1857
1834
1879
1957
2032
2057
2000
1898
1795
1770
1814
1917
2011
2075
2047
1949
1836
1752
1745
1815
1889
1963
2000
1959
1872
1778
1761
1823
1922
2000
2039
2014
1922
1818
1776
1808
1888
1968
2006
1970
1889
1835
1815
1866
1988
2131
2247
2303
2291
2225
2133
2064
2057
2079
2074
2001
1866
1690
1513
1426
1454
1553
1670
1767
1808
1771
1711
1673
1700
1805
1930
2032
2069
2001
1895
1797
1783
1843
1939
2032
2073
2032
1961
1884
1883
1940
2011
2103
2164
2142
2055
1932
1862
1890
1983
2087
2160
2157
2057
1927
1853
1872
1968
2087
2176
2199
2160
2065
1982
1935
1950
2026
2121
2179
2190
2131
2055
2001
2026
2111
2192
2261
2304
2256
2155
2086
2075
2129
2233
2320
2345
2276
2182
2127
2122
2194
2300
2398
2461
2426
2320
2199
2110
2103
2169
2251
2314
2304
2229
2129
2043
2015
2070
2133
2183
2209
2176
2094
2005
1954
1978
2054
2112
2147
2125
2003
1883
1800
1792
1865
1943
2006
2005
1925
1843
1797
1796
1856
1946
2017
2059
2002
1909
1822
1759
1771
1869
1975
2041
2037
1983
1900
1822
1834
1904
1987
2047
2055
1986
1883
1806
1791
1853
1945
2018
2037
1993
1903
1806
1758
1791
1882
1974
2037
2017
1910
1805
1745
1744
1834
1922
2000
2028
1984
1902
1819
1794
1839
1927
2001
2042
2014
1920
1838
1793
1840
1929
2013
2070
2061
1975
1904
1843
1872
1962
2069
2139
2135
2074
1968
1886
1872
1936
2032
2092
2090
2013
1897
1797
1744
1759
1869
1967
2002
1987
1899
1789
1733
1759
1847
1937
2009
2023
1961
1868
1791
1753
1792
1871
1939
1976
1916
1837
1766
1745
1798
1901
1996
2057
2019
1935
1827
1737
1718
1779
1874
1937
1941
1887
1804
1759
1798
1916
2078
2224
2306
2319
2269
2187
2112
2080
2082
2080
2017
1889
1699
1488
1366
1372
1468
1595
1725
1782
1759
1678
1613
1615
1697
1843
1964
2022
1994
1871
1737
1709
1781
1908
2029
2105
2096
2017
1911
1855
1863
1933
2029
2113
2134
2085
1983
1899
1872
1924
2031
2124
2150
2112
2005
1920
1901
1941
2037
2128
2178
2171
2096
2001
1954
1968
2039
2149
2208
2223
2155
2042
1949
1938
2002
2122
2209
2237
2215
2139
2065
2032
2065
2162
2275
2348
2351
2288
2204
2149
2170
2246
2321
2373
2368
2304
2210
2113
2081
2133
2235
2329
2353
2293
2155
2039
1991
2014
2106
2190
2237
2209
2094
1963
1887
1901
1970
2064
2128
2131
2058
1965
1893
1874
1907
1972
2032
2059
2027
1933
1829
1760
1771
1859
1963
2047
2080
2015
1923
1851
1856
1921
1984
2032
2046
1967
1849
1765
1741
1808
1919
2013
2064
2028
1923
1825
1776
1803
1891
1968
2023
2015
1968
1876
1809
1827
1898
1994
2085
2112
2035
1916
1798
1754
1796
1924
2047
2114
2087
1985
1873
1807
1815
1886
1968
2030
2013
1927
1822
1738
1748
1839
1957
2055
2082
2030
1936
1847
1826
1892
1983
2061
2102
2077
1980
1897
1861
1894
1979
2064
2118
2114
2031
1936
1884
1898
1955
2043
2107
2084
1971
1833
1725
1711
1769
1877
1968
2003
1973
1878
1785
1738
1775
1861
1952
2017
2023
1950
1831
1735
1706
1744
1829
1901
1919
1870
1791
1739
1739
1797
1913
2025
2094
2047
1929
1819
1741
1741
1812
1904
1986
2020
1991
1955
1953
2019
2151
2292
2385
2387
2271
2083
1877
1716
1639
1631
1631
1615
1535
1449
1360
1344
1426
1585
1762
1885
1924
1887
1808
1739
1714
1776
1875
1961
1997
1953
1865
1791
1776
1837
1936
2034
2096
2087
2014
1930
1883
1905
1978
2064
2121
2116
2035
1929
1851
1867
1968
2094
2167
2187
2123
2002
1911
1894
1958
2068
2183
2249
2220
2123
2014
1957
1991
2096
2207
2298
2298
2195
2087
2014
2015
2101
2215
2320
2354
2304
2208
2128
2096
2146
2253
2357
2420
2415
2334
2230
2161
2165
2239
2330
2400
2401
2321
2205
2102
2084
2160
2254
2323
2343
2287
2173
2065
1990
2000
2071
2145
2178
2141
2043
1939
1879
1894
1974
2075
2128
2117
2017
1915
1833
1812
1854
1938
2012
2035
1999
1900
1808
1774
1809
1891
1963
2001
1972
1888
1803
1745
1773
1856
1951
2010
2006
1925
1814
1730
1719
1797
1917
2023
2039
1990
1899
1805
1766
1811
1898
1951
1982
1967
1889
1798
1750
1781
1869
1973
2043
2035
1963
1863
1797
1794
1845
1904
1962
1959
1909
1828
1750
1723
1767
1855
1952
2003
1973
1895
1808
1737
1755
1859
1970
2031
2027
1952
1841
1767
1763
1840
1939
2019
2053
2020
1920
1823
1795
1845
1938
2032
2110
2115
2054
1958
1904
1903
1951
2039
2123
2150
2101
2016
1938
1909
1957
2028
2086
2097
2037
1923
1823
1776
1808
1897
1984
2039
2000
1904
1808
1769
1794
1871
1959
2037
2064
1984
1863
1756
1747
1831
1931
2000
2002
1949
1858
1763
1731
1791
1904
1985
2015
2000
1908
1793
1721
1712
1773
1855
1909
1918
1891
1846
1833
1898
2043
2223
2384
2495
2480
2352
2149
1994
1903
1839
1754
1658
1515
1348
1221
1189
1266
1438
1633
1754
1796
1766
1701
1661
1682
1774
1878
1961
1998
1961
1885
1834
1819
1869
1954
2032
2078
2055
1957
1872
1851
1919
2002
2096
2158
2160
2096
1984
1904
1895
1962
2061
2131
2161
2137
2047
1971
1937
1959
2031
2122
2199
2183
2098
2001
1936
1968
2097
2214
2288
2292
2221
2114
2034
2023
2112
2233
2341
2405
2363
2273
2160
2128
2160
2240
2322
2381
2368
2320
2253
2219
2223
2302
2413
2483
2485
2406
2306
2224
2205
2255
2342
2414
2432
2374
2256
2155
2107
2123
2192
2262
2303
2286
2193
2077
2000
1997
2047
2119
2178
2173
2083
1950
1843
1807
1878
1995
2090
2122
2074
1990
1904
1849
1840
1886
1968
2030
2023
1959
1855
1776
1771
1840
1953
2031
2044
1986
1892
1815
1792
1861
1982
2074
2096
2018
1891
1783
1745
1779
1871
1959
2015
2002
1936
1830
1758
1754
1832
1931
2019
2034
1949
1837
1745
1728
1786
1890
1986
2047
2009
1888
1783
1751
1806
1904
1986
2032
2015
1935
1840
1775
1757
1808
1904
1992
2002
1951
1858
1767
1744
1809
1919
2015
2058
2019
1915
1797
1737
1760
1861
1968
2030
2014
1921
1818
1756
