2005
2063
2070
1999
1898
1783
1738
1789
1873
1939
1958
1904
1776
1655
1612
1664
1759
1851
1904
1894
1808
1710
1633
1618
1682
1799
1863
1856
1795
1710
1645
1649
1714
1808
1873
1889
1835
1715
1621
1587
1623
1709
1814
1893
1894
1808
1712
1680
1725
1822
1925
2010
2030
1969
1879
1792
1759
1802
1865
1930
1950
1897
1806
1711
1658
1687
1778
1869
1922
1883
1767
1661
1602
1614
1683
1781
1872
1911
1869
1755
1670
1666
1726
1805
1881
1904
1871
1786
1697
1680
1731
1810
1873
1909
1870
1755
1645
1569
1577
1683
1825
1943
2018
2029
1975
1906
1868
1846
1823
1806
1727
1566
1360
1168
1085
1136
1270
1431
1579
1652
1646
1600
1584
1648
1750
1857
1933
1958
1917
1831
1774
1785
1872
2004
2115
2154
2112
2007
1910
1867
1883
1931
2005
2095
2106
2026
1942
1905
1926
2000
2095
2165
2176
2118
2043
1981
1947
1990
2080
2165
2224
2197
2096
1997
1959
2003
2135
2242
2294
2303
2227
2129
2080
2096
2176
2261
2339
2367
2326
2261
2186
2158
2223
2333
2438
2475
2407
2291
2196
2159
2202
2319
2416
2458
2439
2367
2278
2207
2202
2256
2326
2367
2335
2231
2105
2000
1981
2035
2128
2198
2207
2134
2003
1899
1855
1884
1953
2025
2083
2079
1997
1911
1868
1862
1923
2022
2091
2090
2031
1953
1887
1859
1923
2028
2117
2128
2071
1971
1886
1854
1893
1995
2112
2160
2123
2038
1939
1889
1913
2000
2123
2213
2231
2177
2066
1981
1947
1979
2041
2107
2119
2067
1973
1877
1826
1849
1921
2013
2059
2032
1954
1867
1781
1766
1841
1936
1995
1989
1936
1851
1767
1744
1792
1889
1983
2029
1986
1869
1766
1713
1755
1863
1957
2000
1961
1854
1730
1645
1646
1743
1863
1958
2007
2009
1982
1947
1968
2016
2046
2054
1984
1835
1617
1390
1227
1169
1218
1328
1425
1487
1506
1495
1511
1577
1702
1834
1934
1983
1951
1877
1820
1811
1877
1991
2097
2135
2098
2015
1941
1927
1971
2064
2166
2234
2223
2146
2042
1985
2000
2062
2134
2195
2211
2182
2107
2038
2025
2074
2138
2199
2247
2209
2105
2047
2032
2098
2217
2316
2368
2347
2256
2144
2071
2106
2192
2306
2384
2403
2343
2266
2211
2197
2254
2352
2430
2451
2423
2343
2245
2203
2251
2357
2470
2544
2539
2442
2335
2254
2255
2345
2433
2463
2410
2317
2211
2121
2079
2112
2174
2235
2239
2169
2047
1930
1865
1874
1957
2070
2128
2105
2000
1887
1823
1834
1905
1999
2063
2075
2001
1895
1822
1825
1918
2012
2068
2064
2013
1935
1865
1835
1867
1972
2071
2129
2128
2064
1962
1887
1895
1945
2025
2112
2149
2117
2047
1984
1973
2013
2096
2163
2186
2128
2011
1903
1868
1877
1939
2002
2032
2000
1883
1776
1730
1743
1805
1895
1978
2007
1946
1847
1770
1763
1808
1904
1997
2045
2017
1941
1846
1794
1820
1909
2003
2045
2000
1897
1765
1663
1642
1696
1792
1891
1948
1951
1936
1921
1937
2002
2054
2039
1959
1811
1614
1408
1255
1200
1230
1308
1406
1472
1488
1493
1526
1607
1725
1853
1962
1994
1947
1867
1803
1791
1849
1949
2036
2114
2114
2047
1971
1911
1939
2027
2121
2178
2192
2133
2039
1968
1979
2057
2155
2212
2212
2170
2105
2033
2030
2094
2179
2255
2281
2254
2176
2096
2057
2094
2176
2249
2305
2326
2283
2207
2143
2149
2211
2288
2372
2425
2390
2325
2269
2249
2303
2386
2464
2506
2467
2379
2299
2267
2307
2403
2501
2555
2531
2451
2338
2257
2255
2320
2398
2457
2463
2394
2279
2187
2142
2155
2223
2306
2316
2249
2129
2019
1939
1936
1978
2043
2099
2082
1997
1911
1840
1849
1933
2034
2107
2109
2022
1919
1849
1849
1902
1984
2082
2137
2096
2013
1927
1867
1881
1971
2063
2098
2087
2000
1915
1858
1872
1950
2055
2149
2176
2131
2038
1965
1943
1991
2065
2122
2143
2099
1981
1861
1808
1821
1874
1942
1999
1991
1930
1822
1733
1729
1791
1875
1953
1995
1983
1919
1817
1767
1786
1855
1940
1988
1971
1897
1803
1737
1760
1835
1929
1997
1991
1897
1775
1675
1646
1695
1763
1840
1894
1901
1879
1877
1921
2019
2122
2150
2092
1946
1723
1495
1340
1275
1311
1381
1461
1502
1473
1441
1482
1607
1750
1886
1956
1968
1919
1835
1766
1771
1840
1935
2016
2069
2045
1968
1904
1855
1877
1971
2086
2146
2129
2063
1963
1905
1948
2064
2183
2260
2263
2187
2071
1977
1947
1991
2103
2206
2249
2218
2125
2032
2003
2043
2128
2215
2265
2234
2151
2071
2018
2030
2128
2256
2352
2373
2329
2251
2183
2163
2224
2319
2391
2416
2384
2310
2237
2208
2207
2277
2371
2450
2455
2366
2229
2147
2157
2224
2300
2362
2369
2304
2189
2087
2021
2047
2106
2165
2192
2141
2032
1936
1885
1904
1959
2000
2036
2042
1991
1907
1837
1840
1920
2032
2087
2057
1963
1867
1807
1793
1831
1911
1999
2045
2006
1922
1831
1792
1841
1948
2043
2107
2109
2041
1943
1867
1840
1886
1991
2085
2101
2030
1937
1882
1871
1914
1999
2095
2129
2095
1983
1872
1803
1803
1854
1930
1974
1983
1925
1840
1772
1750
1795
1855
1913
1932
1871
1788
1723
1729
1788
1891
1994
2032
1981
1872
1778
1739
1777
1871
1954
2000
1968
1851
1718
1631
1625
1717
1845
1937
1981
1973
1938
1931
1984
2093
2175
2189
2130
1999
1792
1588
1439
1375
1394
1472
1535
1575
1552
1507
1483
1519
1631
1772
1882
1931
1917
1840
1774
1747
1807
1901
2005
2075
2071
1994
1903
1855
1897
1983
2083
2149
2158
2105
2019
1964
1973
2046
2142
2222
2249
2210
2107
1997
1951
1984
2065
2158
2204
2165
2091
2009
1969
2000
2113
2234
2302
2301
2241
2162
2091
2077
2119
2203
2274
2320
2288
2198
2114
2101
2176
2283
2375
2417
2386
2298
2178
2128
2160
2254
2354
2417
2415
2342
2251
2189
2188
2235
2302
2343
2333
2261
2163
2078
2029
2044
2114
2179
2209
2179
2075
1954
1879
1882
1936
1991
2032
2035
1967
1874
1820
1831
1912
2007
2070
2081
2023
1927
1826
1779
1825
1931
2030
2065
2043
1959
1856
1779
1779
1847
1966
2082
2109
2039
1949
1874
1846
1892
1985
2083
2126
2085
1991
1906
1876
1905
1984
2071
2107
2066
1953
1833
1766
1791
1867
1958
2006
1990
1914
1807
1728
1716
1757
1840
1927
1968
1936
1839
1734
1699
1754
1886
2005
2060
2005
1872
1759
1707
1712
1785
1879
1948
1947
1881
1776
1683
1670
1728
1807
1895
1936
1936
1904
1878
1894
1979
2064
2107
2093
1981
1813
1649
1511
1442
1439
1461
1516
1535
1518
1462
1460
1520
1631
1770
1899
1968
1954
1867
1779
1744
1799
1899
2001
2067
2070
2013
1920
1849
1872
1953
2038
2112
2119
2067
1975
1903
1902
1973
2045
2126
2162
2138
2061
1975
1935
1991
2098
2185
2235
2205
2090
1975
1923
1952
2029
2130
2223
2240
2176
2096
2009
1998
2068
2176
2277
2306
2265
2155
2064
2063
2133
2245
2337
2387
2367
2276
2189
2141
2166
2242
2317
2374
2384
2314
2191
2092
2108
2207
2314
2375
2371
2290
2183
2073
1982
1981
2043
2128
2161
2133
2033
1927
1845
1841
1902
1969
2015
2020
1981
1904
1839
1841
1901
1981
2043
2064
2021
1931
1835
1789
1835
1939
2032
2076
2064
1987
1879
1807
1817
1885
1955
2016
2042
2011
1938
1869
1846
1891
1984
2073
2118
2098
2020
1937
1887
1879
1957
2042
2093
2063
1967
1873
1824
1840
1927
2014
2064
2032
1939
1818
1728
1711
1765
1870
1965
1997
1946
1862
1790
1757
1793
1891
1986
2037
2005
1903
1808
1765
1777
1838
1910
1971
1975
1905
1815
1744
1741
1795
1859
1915
1925
1886
1815
1770
1808
1950
2130
2251
2257
2138
1924
1674
1491
1424
1439
1491
1527
1499
1443
1390
1366
1434
1573
1727
1847
1927
1891
1814
1738
1727
1793
1909
2020
2093
2093
2022
1928
1907
1935
2003
2091
2155
2162
2096
1991
1917
1919
1979
2090
2183
2219
2149
2035
1940
1925
2003
2120
2209
2264
2252
2174
2090
2019
2022
2093
2175
2224
2247
2221
2153
2081
2071
2160
2267
2353
2382
2330
2224
2121
2085
2128
2211
2309
2369
2384
2329
2265
2224
2241
2302
2377
2423
2412
2351
2263
2182
2159
2207
2295
2362
2383
2325
2208
2106
2064
2096
2161
2224
2266
2227
2119
1991
1923
1927
1971
2042
2107
2098
2030
1936
1872
1851
1901
1967
2031
2043
1984
1885
1782
1733
1771
1871
1973
2037
2027
1950
1870
1823
1839
1923
2021
2080
2059
1949
1855
1807
1827
1923
2047
2131
2150
2107
2014
1934
1904
1952
2038
2117
2133
2090
1974
1861
1806
1819
1888
1955
1990
1981
1895
1763
1650
1630
1710
1831
1966
2021
1982
1871
1763
1730
1760
1825
1888
1925
1904
1840
1776
1735
1739
1794
1872
1935
1919
1842
1744
1664
1634
1686
1776
1855
1854
1801
1714
1659
1679
1785
1954
2119
2210
2183
2026
1838
1664
1535
1483
1457
1449
1401
1279
1154
1090
1136
1285
1470
1643
1759
1776
1723
1668
1669
1733
1846
1927
1968
1966
1915
1846
1799
1823
1909
2022
2102
2085
2006
1920
1853
1861
1925
2017
2093
2127
2096
1993
1903
1869
1935
2047
2130
2171
2158
2091
1997
1924
1932
2015
2113
2192
2224
2165
2079
2006
2010
2094
2195
2281
2311
2257
2144
2044
2000
2033
2151
2265
2363
2365
2288
2209
2166
2179
2259
2353
2412
2415
2342
2246
2167
2151
2217
2301
2365
2391
2367
2272
2169
2108
2102
2149
2199
2210
2151
2043
1936
1865
1856
1925
2000
2055
2054
1979
1877
1813
1808
1872
1952
2018
2033
1969
1857
1754
1706
1742
1840
1939
1996
1972
1875
1773
1702
1725
1806
1904
1977
1983
1922
1819
1717
1684
1735
1840
1950
2012
1970
1888
1831
1810
1882
1994
2100
2148
2119
2010
1895
1798
1776
1813
1886
1943
1930
1866
1775
1707
1680
1712
1776
1843
1867
1830
1746
1668
1616
1642
1732
1810
1853
1841
1779
1700
1648
1665
1729
1804
1856
1867
1811
1718
1655
1639
1677
1762
1844
1841
1744
1625
1535
1510
1565
1688
1844
1995
2096
2101
2019
1904
1808
1755
1706
1633
1509
1330
1147
1023
999
1097
1259
1413
1520
1580
1558
1531
1555
1648
1791
1917
1987
1989
1905
1811
1765
1806
1914
2029
2107
2122
2065
1975
1920
1927
1999
2102
2198
2240
2187
2062
1961
1910
1930
2015
2114
2191
2176
2106
2035
2005
2033
2124
2209
2263
2286
2241
2160
2087
2041
2102
2211
2309
2353
2316
2226
2166
2157
2196
2295
2413
2448
2403
2316
2249
2218
2240
2338
2447
2519
2521
2461
2367
2298
2295
2346
2427
2500
2529
2487
2384
2287
2231
2251
2303
2359
2384
2363
2256
2117
2021
2025
2113
2197
2253
2233
2131
1982
1890
1873
1942
2039
2114
2127
2061
1935
1831
1809
1867
1968
2063
2123
2116
2026
1914
1840
1853
1938
2031
2096
2091
2015
1891
1775
1744
1814
1936
2071
2148
2157
2081
1987
1939
1967
2039
2147
2207
2189
2103
2002
1938
1922
1964
2054
2127
2128
2047
1936
1847
1815
1856
1927
1983
2000
1953
1858
1779
1744
1780
1872
1966
2015
2009
1935
1835
1775
1778
1857
1965
2033
2032
1953
1830
1747
1759
1843
1958
2023
2021
1929
1791
1659
1593
1648
1775
1907
2023
2071
2059
2032
2010
2005
2021
2018
1951
1823
1638
1415
1236
1173
1232
1353
1483
1585
1642
1631
1607
1616
1691
1825
1955
2039
2059
1995
1919
1877
1894
1968
2086
2174
2181
2113
2016
1954
1962
2032
2147
2247
2288
2253
2137
2032
1991
2013
2096
2189
2256
2260
2192
2112
2068
2083
2157
2240
2299
2320
2276
2182
2096
2087
2160
2262
2352
2391
2373
2290
2209
2169
2206
2293
2395
2463
2474
2418
2320
2267
2302
2401
2503
2559
2559
2513
2422
2347
2320
2359
2439
2517
2539
2487
2384
2287
2258
2299
2386
2455
2485
2451
2334
2186
2083
2055
2096
2173
2237
2239
2161
2045
1955
1936
1985
2076
2165
2207
2174
2074
1971
1939
1981
2043
2105
2141
2112
2015
1927
1882
1900
1976
2060
2110
2105
2034
1937
1857
1844
1879
1975
2075
2127
2125
2059
1969
1926
1951
2042
2143
2207
2219
2155
2046
1985
1979
2032
2091
2129
2124
2062
1954
1885
1872
1930
2017
2091
2103
2057
1942
1826
1767
1783
1855
1941
2004
2006
1942
1845
1764
1773
1856
1951
2015
2036
1971
1881
1826
1811
1861
1937
1990
2006
1969
1872
1752
1685
1715
1809
1915
2000
2027
2006
1980
1978
2032
2117
2181
2180
2091
1911
1705
1509
1395
1369
1424
1516
1579
1571
1517
1487
1520
1618
1755
1897
1983
1982
1907
1819
1766
1772
1845
1963
2079
2138
2105
2031
1958
1927
1966
2047
2142
2192
2171
2093
2013
1967
1994
2096
2183
2241
2235
2159
2062
1986
1983
2047
2153
2239
2266
2229
2147
2057
2032
2095
2176
2256
2282
2262
2205
2144
2123
2177
2277
2370
2417
2409
2337
2257
2190
2194
2263
2348
2411
2426
2385
2306
2242
2235
2291
2384
2443
2454
2398
2293
2206
2169
2198
2279
2367
2429
2397
2303
2187
2096
2090
2149
2229
2278
2255
2160
2033
1937
1922
1968
2047
2114
2131
2091
1983
1870
1850
1877
1958
2067
2128
2115
2025
1923
1840
1801
1858
1967
2063
2097
2034
1931
1840
1806
1840
1930
2022
2093
2085
2000
1905
1856
1904
2001
2112
2167
2155
2074
1970
1887
1903
1997
2091
2151
2153
2073
1941
1834
1792
1850
1946
2032
2081
2044
1936
1808
1740
1757
1849
1938
2010
2020
1952
1863
1792
1786
1850
1929
1994
2016
1972
1888
1793
1759
1805
1901
1996
2046
2020
1919
1803
1724
1723
1791
1882
1957
1969
1908
1840
1829
1879
2000
2157
2259
2250
2132
1957
1774
1639
1586
1600
1616
1605
1535
1479
1433
1434
1520
1681
1834
1945
1968
1894
1790
1727
1747
1831
1925
2014
2041
1994
1910
1842
1847
1921
2027
2128
2167
2122
2029
1936
1903
1943
2032
2118
2171
2172
2115
2015
1925
1922
1983
2064
2128
2162
2112
2015
1937
1926
1994
2118
2192
2219
2182
2101
2013
1991
2047
2135
2217
2266
2246
2180
2113
2047
2033
2106
2207
2294
2325
2285
2190
2109
2097
2154
2245
2326
2351
2294
2174
2074
2038
2092
2175
2261
2321
2307
2219
2103
2012
1985
2046
2131
2189
2187
2103
1971
1856
1813
1873
1967
2045
2082
2023
1924
1827
1779
1810
1910
2023
2091
2061
1970
1857
1763
1763
1825
1905
1981
2006
1968
1891
1825
1817
1874
1973
2053
2066
2006
1915
1803
1752
1799
1918
2033
2112
2113
2029
1918
1831
1827
1904
2003
2087
2098
2027
1920
1830
1809
1861
1951
2031
2064
1998
1872
1764
1695
1710
1801
1898
1946
1937
1882
1805
1749
1751
1826
1914
1962
1965
1909
1805
1683
1647
1712
1837
1918
1955
1923
1834
1739
1680
1690
1755
1833
1877
1865
1808
1743
1711
1756
1887
2035
2169
2215
2145
2001
1862
1749
1661
1631
1635
1616
1535
1410
1305
1264
1343
1482
1633
1759
1814
1787
1719
1693
1719
1799
1903
1988
2022
2003
1936
1863
1854
1909
1991
2077
2128
2103
2013
1927
1903
1939
2031
2131
2209
2219
2142
2037
1965
1962
2039
2140
2197
2195
2139
2045
1963
1949
2009
2117
2206
2259
2243
2159
2074
2022
2059
2150
2247
2303
2301
2242
2162
2099
2105
2183
2283
2350
2373
2329
2226
2161
2158
2206
2298
2399
2446
2416
2339
2255
2198
2211
2295
2368
2384
2355
2269
2174
2105
2106
2169
2245
2299
2285
2195
2095
1981
1925
1952
2023
2103
2130
2085
1972
1870
1813
1837
1930
2026
2097
2097
2018
1915
1850
1840
1891
1975
2058
2078
2017
1911
1834
1837
1904
1991
2055
2065
2003
1904
1814
1781
1815
1909
2015
2087
2079
1993
1899
1845
1863
1975
2112
2211
2234
2165
2037
1941
1904
1923
2002
2079
2098
2047
1948
1829
1735
1738
1817
1901
1955
1958
1905
1815
1741
1744
1818
1911
1975
1971
1899
1790
1712
1693
1756
1838
1925
1974
1954
1863
1769
1713
1747
1840
1924
1963
1921
1826
1702
1614
1654
1769
1904
2024
2081
2083
2042
1993
1942
1923
1903
1887
1855
1727
1499
1294
1163
1151
1243
1389
1525
1618
1635
1606
1586
1639
1755
1882
1979
2014
1973
1871
1806
1811
1876
1947
2003
2071
2085
2015
1931
1865
1884
1975
2093
2179
2195
2143
2055
1990
1994
2064
2147
2211
2225
2167
2045
1948
1926
1996
2121
2230
2282
2247
2160
2074
2027
2063
2151
2245
2303
2306
2240
2151
2089
2071
2151
2277
2385
2416
2365
2256
2188
2178
2237
2330
2409
2453
2422
2345
2261
2206
2256
2320
2370
2410
2416
2361
2285
2220
2206
2258
2322
2358
2330
2231
2096
1983
1946
1984
2063
2129
2160
2122
2037
1946
1895
1904
1981
2059
2095
2071
1990
1904
1837
1840
1918
2029
2096
2080
1995
1884
1801
1783
1842
1936
2021
2059
2011
1919
1815
1747
1751
1827
1936
2032
2081
2022
1941
1877
1854
1919
2037
2139
2173
2131
2039
1962
1930
1967
2047
2112
2132
2076
1941
1818
1743
1727
1793
1883
1935
1929
1863
1779
1715
1722
1790
1889
1957
1966
1904
1794
1700
1678
1720
1803
1895
1939
1917
1843
1762
1714
1725
1774
1854
1939
1969
1907
1785
1667
1622
1650
1719
1808
1857
1856
1831
1813
1851
1968
2111
2167
2135
1999
1779
1527
1323
1226
1225
1264
1322
1339
1313
1292
1295
1360
1501
1659
1789
1859
1840
1759
1702
1712
1792
1918
2011
2068
2065
2004
1927
1877
1918
2006
2106
2153
2130
2059
1951
1888
1904
1980
2091
2160
2175
2139
2053
1968
1947
2007
2107
2181
2217
2183
2094
1988
1954
1997
2112
2219
2288
2295
2234
2157
2100
2112
2203
2320
2379
2430
2368
2260
2173
2153
2209
2305
2389
2425
2383
2282
2183
2127
2134
2215
2317
2383
2382
2320
2224
2145
2139
2210
2305
2381
2382
2303
2191
2083
2020
2043
2114
2192
2212
2161
2059
1936
1867
1856
1922
2000
2054
2026
1932
1851
1802
1806
1856
1927
1990
1999
1915
1796
1726
1721
1802
1904
1975
2001
1968
1875
1786
1744
1771
1858
1939
1969
1962
1935
1847
1790
1793
1866
1963
2039
2064
2009
1919
1839
1826
1867
1943
2037
2122
2130
2062
1941
1869
1862
1918
1974
2037
2019
1923
1826
1761
1763
1821
1900
1947
1958
1892
1808
1735
1712
1745
1807
1871
1896
1883
1810
1731
1687
1711
1787
1874
1939
1936
1865
1785
1721
1735
1819
1901
1941
1921
1840
1721
1616
1581
1637
1770
1904
2004
2047
2029
1983
1903
1840
1807
1781
1733
1649
1469
1269
1135
1116
1216
1370
1516
1613
1648
1634
1621
1635
1699
1823
1930
1980
1959
1885
1815
1782
1821
1931
2043
2135
2149
2064
1959
1903
1910
1982
2045
2125
2157
2123
2039
1969
1943
1994
2096
2175
2224
2199
2115
2022
1977
2010
2111
2207
2274
2282
2224
2137
2066
2063
2122
2207
2294
2335
2340
2267
2185
2135
2141
2224
2320
2383
2374
2313
2260
2240
2291
2401
2497
2544
2526
2425
2320
2246
2247
2306
2375
2431
2460
2433
2342
2253
2226
2243
2323
2416
2431
2371
2270
2170
2102
2096
2138
2186
2223
2195
2106
2000
1935
1925
1979
2063
2112
2130
2111
2025
1934
1873
1899
1983
2066
2095
2047
1952
1871
1831
1872
1985
2118
2187
2167
2047
1907
1815
1829
1931
2029
2096
2090
2016
1933
1871
1860
1917
2018
2105
2135
2126
2063
1975
1922
1957
2045
2131
2174
2169
2086
1990
1927
1893
1920
1984
2026
2032
1985
1904
1821
1786
1825
1904
1968
1990
1948
1857
1776
1739
1756
1840
1949
2035
2054
1975
1873
1797
1792
1872
1962
2032
2047
1999
1901
1809
1771
1793
1855
1923
1955
1958
1890
1840
1840
1906
2036
2198
2307
2305
2178
1962
1746
1607
1535
1535
1535
1507
1445
1381
1347
1396
1535
1727
1867
1948
1931
1840
1747
1724
1778
1889
2005
2093
2112
2067
1969
1885
1872
1954
2059
2153
2180
2160
2075
1979
1941
1987
2077
2163
2211
2202
2141
2074
2009
2031
2123
2224
2291
2271
2206
2121
2038
2027
2105
2193
2263
2297
2257
2176
2113
2095
2138
2213
2301
2362
2359
2283
2180
2097
2119
2211
2317
2401
2457
2430
2337
2239
2202
2271
2363
2432
2457
2398
2286
2201
2181
2250
2351
2430
2461
2416
2288
2176
2128
2150
2217
2283
2295
2256
2157
2038
1958
1947
2007
2069
2112
2127
2074
1953
1863
1840
1890
1987
2083
2119
2086
1983
1882
1829
1827
1890
1999
2078
2070
2004
1908
1829
1822
1887
1981
2059
2111
2066
1950
1852
1795
1823
1953
2075
2128
2105
2003
1911
1858
1874
1946
2033
2113
2128
2054
1936
1863
1858
1931
2032
2112
2121
2052
1940
1851
1799
1812
1900
1980
2015
1989
1895
1803
1757
1787
1865
1941
1982
1959
1892
1837
1776
1773
1840
1926
1990
2011
1968
1872
1779
1742
1776
1867
1939
1963
1917
1813
1721
1679
1713
1806
1921
2021
2071
2057
2000
1994
2035
2109
2141
2111
2010
1859
1680
1520
1402
1392
1472
1575
1645
1647
1584
1535
1535
1610
1726
1854
1940
1973
1924
1838
1774
1776
1851
1968
2067
2108
2047
1953
1889
1874
1910
2004
2102
2154
2143
2066
1955
1899
1920
2000
2117
2197
2213
2155
2064
1981
1972
2033
2126
2192
2222
2188
2106
2022
2021
2091
2170
2253
2298
2285
2205
2112
2087
2137
2237
2327
2378
2353
2266
2142
2038
2035
2116
2224
2311
2352
2307
2198
2112
2090
2139
2227
2314
2372
2355
2284
2203
2151
2157
2207
2268
2315
2315
2237
2125
2019
1988
2029
2103
2180
2208
2153
2047
1945
1894
1921
1987
2064
2102
2073
1984
1861
1779
1787
1846
1915
1973
1983
1934
1867
1808
1801
1870
1967
2046
2064
1988
1883
1799
1777
1815
1915
2010
2071
2027
1923
1820
1776
1808
1897
1984
2043
2053
1984
1905
1840
1817
1862
1939
2041
2099
2081
1990
1900
1847
1853
1914
1984
2026
1995
1904
1814
1747
1741
1792
1877
1949
1959
1889
1781
1683
1675
1753
1859
1955
2000
1967
1867
1767
1721
1739
1803
1874
1924
1918
1837
1729
1665
1675
1728
1795
1857
1856
1783
1693
1664
1705
1809
1961
2096
2156
2113
1988
1873
1793
1767
1782
1789
1747
1627
1441
1291
1222
1264
1395
1552
1681
1744
1721
1650
1610
1617
1693
1798
1891
1918
1863
1774
1706
1709
1786
1894
1997
2061
2042
1943
1838
1783
1815
1901
1982
2047
2064
2005
1922
1856
1872
1936
2005
2066
2096
2067
1966
1871
1840
1895
1991
2098
2176
2183
2112
2014
1936
1939
2018
2128
2202
2192
2086
1957
1889
1903
1987
2105
2206
2266
2231
2131
2045
2009
2047
2153
2240
2288
2251
2160
2067
1998
2015
2112
2206
2259
2240
2174
2087
2007
1990
2043
2126
2180
2187
2124
2013
1903
1838
1863
1942
2013
2062
2031
1937
1830
1775
1786
1830
1894
1941
1947
1875
1767
1686
1690
1758
1859
1947
1975
1921
1819
1741
1712
1735
1811
1909
1966
1943
1843
1744
1703
1728
1830
1927
1974
1954
1883
1821
1762
1726
1771
1881
1983
2023
1983
1920
1861
1831
1854
1936
2000
2020
2000
1919
1808
1735
1747
1826
1914
1971
1951
1866
1763
1693
1684
1743
1846
1935
1945
1884
1774
1665
1609
1630
1713
1798
1879
1891
1821
1735
1690
1713
1790
1861
1904
1899
1841
1760
1686
1679
1727
1791
1830
1833
1765
1683
1628
1642
1742
1899
2047
2139
2115
1968
1775
1598
1492
1486
1474
1469
1429
1355
1264
1221
1281
1421
1575
1694
1762
1759
1705
1648
1647
1713
1813
1905
1967
1964
1898
1827
1791
1818
1903
1994
2062
2064
2001
1936
1879
1878
1943
2034
2114
2129
2065
1959
1879
1872
1933
2038
2128
2159
2132
2064
1978
1923
1936
2001
2119
2206
2222
2175
2073
2001
2010
2086
2182
2271
2300
2267
2193
2101
2063
2119
2197
2288
2352
2352
2302
2239
2196
2205
2271
2375
2471
2493
2416
2304
2209
2189
2224
2315
2394
2416
2359
2263
2191
2155
2165
2226
2288
2304
2254
2141
2019
1939
1946
2020
2115
2181
2170
2087
1969
1897
1873
1913
2001
2105
2145
2107
2011
1920
1878
1904
1993
2112
2173
2147
2035
1926
1857
1872
1931
1985
2032
2021
1961
1889
1840
1844
1933
2053
2147
2178
2139
2045
1943
1908
1955
2060
2165
2219
2187
2096
1981
1922
1943
2026
2119
2176
2169
2092
1981
1899
1882
1944
2018
2079
2103
2059
1939
1839
1792
1840
1936
2029
2096
2073
2003
1918
1855
1856
1920
2003
2067
2064
1986
1891
1830
1827
1889
1979
2038
2075
2028
1931
1839
1776
1793
1853
1902
1953
1959
1919
1877
1869
1944
2102
2249
2331
2293
2161
1962
1790
1681
1633
1616
1591
1535
1483
1413
1363
1414
1535
1729
1875
1959
1968
1919
1856
1810
1838
1930
2034
2112
2138
2105
2037
1997
2007
2096
2182
2256
2291
2256
2189
2112
2083
2130
2202
2281
2314
2283
2187
2121
2110
2153
2259
2342
2383
2357
2283
2181
2113
2130
2207
2320
2432
2482
2447
2343
2255
2235
2277
2359
2451
2522
2512
2430
2346
2303
2325
2399
2494
2579
2613
2555
2449
2362
2357
2440
2540
2618
2641
2608
2515
2434
2407
2445
2516
2612
2642
2587
2475
2368
2293
2293
2362
2450
2502
2487
2402
2272
2170
2139
2171
2229
2274
2286
2241
2146
2061
2043
2083
2173
2251
2269
2224
2160
2065
2002
2005
2075
2151
2211
2218
2157
2064
1974
1972
2034
2128
2195
2213
2166
2075
1973
1923
1958
2073
2189
2254
2245
2163
2095
2042
2061
2133
2229
2309
2307
2237
2159
2119
2123
2173
2250
2299
2306
2239
2128
2039
1985
2019
2098
2179
2223
2182
2093
1969
1909
1908
1971
2063
2141
2173
2122
2010
1897
1854
1919
2029
2105
2105
2039
1955
1877
1866
1920
2037
2128
2154
2119
2027
1935
1871
1883
1959
2034
2095
2075
1998
1889
1830
1875
2005
2160
2297
2384
2384
2266
2098
1923
1821
1771
1739
1680
1571
1431
1343
1325
1387
1523
1698
1851
1946
1968
1940
1904
1920
2000
2119
2221
2251
2219
2124
2027
2000
2062
2160
2271
2335
2304
2215
2120
2080
2123
2222
2329
2412
2416
2355
2259
2174
2165
2224
2319
2411
2416
2351
2267
2209
2207
2256
2334
2413
2446
2428
2361
2279
2217
2233
2320
2413
2486
2501
2449
2365
2294
2291
2362
2463
2545
2603
2587
2506
2432
2401
2451
2555
2641
2665
2615
2512
2414
2354
2384
2471
2559
2641
2640
2555
2450
2378
2366
2416
2473
2511
2527
2471
2348
2218
2144
2175
2255
2351
2406
2381
2295
2178
2096
2064
2112
2180
2210
2203
2135
2033
1966
1962
2013
2095
2160
2173
2106
2031
1965
1935
1981
2079
2155
2195
2176
2096
2012
1958
1967
2057
2161
2238
2243
2151
2041
1967
1942
2000
2121
2194
2241
2224
2143
2033
1984
2011
2102
2195
2267
2239
2111
1984
1939
1996
2089
2172
2226
2225
2161
2035
1919
1861
1919
2029
2087
2095
2035
1939
1870
1839
1867
1936
2019
2063
2021
1950
1885
1851
1851
1931
2037
2122
2131
2047
1918
1827
1819
1866
1977
2080
2085
2005
1876
1755
1713
1763
1876
2009
2115
2175
2185
2187
2171
2135
2112
2083
2001
1867
1680
1477
1328
1271
1306
1418
1565
1689
1747
1743
1721
1727
1791
1907
2029
2111
2107
2023
1939
1900
1923
1995
2082
2129
2139
2087
2021
1971
1993
2094
2197
2266
2288
2242
2155
2089
2074
2122
2201
2292
2369
2352
2235
2115
2069
2093
2162
2262
2349
2369
2314
2213
2123
2096
2149
2230
2300
2343
2322
2259
2187
2165
2215
2323
2443
2519
2515
2447
2367
2310
2303
2357
2429
2491
2502
2439
2352
2287
2283
2352
2444
2517
2541
2496
2383
2271
2219
2233
2295
2383
2435
2407
2309
2190
2128
2143
2192
2252
2287
2258
2176
2055
1949
1933
1994
2078
2128
2138
2077
1975
1887
1867
1931
2018
2101
2132
2114
2019
1914
1842
1861
1953
2047
2129
2127
2046
1947
1872
1873
1941
2010
2093
2116
2081
2004
1911
1841
1865
1950
2036
2096
2095
2015
1930
1888
1909
1983
2064
2119
2125
2047
1947
1869
1858
1919
2007
2095
2112
2047
1931
1826
1776
1790
1855
1937
2019
2029
1951
1839
1754
1739
1794
1887
1947
1949
1904
1813
1728
1710
1762
1843
1921
1966
1943
1870
1788
1741
1771
1846
1933
1987
1959
1856
1722
1635
1622
1735
1859
1951
2005
2005
1979
1979
2034
2123
2189
2187
2104
1935
1711
1493
1360
1317
1361
1430
1517
1589
1598
1566
1535
1558
1653
1781
1883
1931
1908
1830
1749
1740
1814
1920
1999
2033
2017
1958
1904
1906
1936
2012
2102
2155
2133
2039
1943
1877
1904
1981
2069
2135
2133
2068
1969
1904
1905
1994
2112
2207
2247
2208
2105
1997
1951
1984
2071
2143
2190
2189
2128
2047
2010
2073
2192
2306
2371
2348
2256
2154
2066
2029
2071
2170
2272
2321
2291
2193
2096
2045
2094
2207
2330
2386
2374
2290
2195
2137
2131
2192
2255
2304
2283
2182
2069
1984
1968
2010
2091
2149
2157
2099
1991
1897
1837
1837
1879
1947
1991
1983
1916
1822
1770
1774
1845
1934
1997
2001
1948
1871
1798
1778
1820
1903
1973
2000
1963
1863
1768
1744
1781
1863
1939
1986
1958
1873
1779
1724
1728
1791
1859
1918
1938
1918
1854
1803
1789
1840
1929
1989
2011
1971
1886
1792
1744
1783
1885
1984
2030
1999
1893
1777
1707
1701
1771
1859
1916
1920
1872
1776
1698
1683
1739
1818
1887
1920
1887
1798
1723
1685
1716
1776
1835
1881
1865
1789
1707
1654
1677
1761
1856
1922
1925
1851
1743
1641
1591
1638
1729
1822
1869
1871
1826
1780
1792
1904
2064
2161
2156
2064
1882
1694
1530
1438
1424
1447
1479
1497
1460
1409
1387
1426
1529
1659
1774
1834
1819
1749
1655
1618
1663
1749
1863
1936
1933
1858
1750
1706
1743
1843
1950
2029
2039
1968
1876
1799
1787
1872
1980
2064
2091
2041
1967
1897
1860
1878
1950
2024
2068
2043
1985
1917
1888
1926
2023
2154
2234
2206
2103
1981
1901
1875
1935
2030
2126
2182
2140
2039
1959
1936
1975
2087
2180
2240
2231
2174
2083
2019
2034
2127
2234
2318
2325
2239
2113
2018
1993
2042
2138
2210
2236
2177
2073
1997
1965
1994
2071
2144
2182
2146
2046
1927
1823
1791
1840
1935
2023
2061
2003
1894
1790
1759
1826
1902
1978
2001
1965
1869
1791
1734
1738
1805
1905
1989
2001
1949
1843
1763
1760
1823
1915
1982
1996
1935
1837
1760
1744
1806
1903
1974
2001
1967
1889
1817
1779
1808
1888
1984
2045
2064
2001
1919
1869
1870
1926
2005
2082
2088
2027
1919
1807
1776
1807
1843
1894
1917
1875
1786
1699
1657
1691
1786
1877
1945
1945
1873
1776
1712
1709
1756
1831
1887
1891
1840
1767
1712
1698
1762
1867
1951
1983
1926
1799
1687
1614
1625
1715
1799
1838
1831
1790
1737
1709
1777
1919
2077
2188
2192
2111
1954
1781
1616
1557
1535
1553
1491
1408
1301
1242
1242
1328
1488
1663
1786
1814
1771
1712
1665
1680
1769
1878
1971
2018
1995
1919
1855
1842
1877
1953
2019
2063
2041
1968
1872
1818
1854
1951
2058
2118
2096
2026
1920
1843
1861
1936
2038
2134
2171
2117
2026
1960
1948
1983
2076
2161
2224
2210
2135
2064
2029
2079
2162
2234
2256
2212
2139
2047
2000
2025
2128
2244
2320
2326
2257
2161
2102
2097
2153
2263
2355
2371
2320
2238
2157
2127
2165
2236
2302
2338
2323
2245
2139
2093
2128
2178
2224
2247
2223
2128
2001
1919
1893
1935
2000
2058
2071
2027
1927
1837
1795
1831
1911
2000
2085
2058
1982
1887
1807
1808
1877
1979
2064
2075
1984
1869
1789
1762
1810
1904
1979
2013
1987
1918
1847
1823
1831
1901
1981
2032
2031
1933
1839
1780
1790
1863
1963
2053
2081
2027
1934
1847
1826
1872
1967
2054
2089
2028
1936
1841
1775
1808
1877
1936
1960
1936
1866
1779
1712
1719
1795
1872
1931
1933
1879
1780
1712
1679
1721
1812
1881
1901
1873
1780
1679
1636
1669
1753
1840
1895
1889
1815
1735
1687
1709
1776
1843
1894
1902
1825
1699
1615
1600
1653
1770
1908
2030
2085
2061
1992
1912
1863
1839
1793
1734
1602
1407
1241
1138
1138
1244
1384
1515
1584
1577
1520
1492
1534
1642
1774
1886
1943
1917
1830
1765
1744
1805
1915
2018
2082
2070
1989
1895
1827
1829
1920
2030
2107
2123
2070
1975
1907
1904
1957
2039
2110
2140
2126
2043
1969
1951
1984
2077
2165
2224
2223
2142
2038
1979
1975
2047
2158
2239
2279
2242
2157
2080
2069
2119
2228
2327
2368
2356
2283
2185
2122
2137
2228
2333
2418
2423
2353
2247
2170
2162
2225
2305
2371
2378
2321
2222
2124
2096
2145
2236
2307
2332
2282
2185
2064
1991
2010
2087
2166
2220
2195
2108
1995
1917
1895
1925
1994
2055
2080
2036
1933
1828
1790
1807
1871
1949
1998
1974
1907
1826
1789
1831
1920
1995
2031
2000
1930
1847
1782
1789
1851
1925
1968
2000
1979
1881
1789
1767
1830
1920
1986
2017
1983
1899
1830
1807
1840
1923
2007
2071
2064
1991
1904
1861
1887
1977
2093
2150
2131
2033
1899
1774
1741
1779
1853
1919
1936
1893
1814
1737
1709
1747
1821
1892
1936
1925
1842
1751
1686
1685
1750
1849
1925
1939
1872
1776
1698
1682
1737
1830
1914
1943
1899
1783
1669
1611
1622
1673
1733
1763
1746
1671
1608
1587
1656
1822
2002
2162
2236
2198
2055
1854
1685
1600
1597
1585
1535
1424
1284
1165
1127
1190
1344
1518
1647
1706
1701
1646
1600
1629
1712
1825
1925
1963
1914
1815
1757
1782
1872
1982
2075
2111
2075
1981
1894
1862
1887
1971
2093
2155
2145
2063
1968
1915
1937
2025
2102
2155
2151
2095
2000
1947
1955
2025
2149
2240
2231
2183
2098
2020
2007
2087
2193
2271
2317
2309
2238
2160
2113
2143
2227
2322
2393
2416
2375
2288
2215
2189
2242
2355
2428
2448
2419
2343
2265
2234
2273
2357
2422
2433
2367
2268
2180
2160
2197
2273
2359
2400
2375
2279
2153
2037
1984
2016
2099
2163
2193
2150
2074
1980
1920
1930
1994
2071
2096
2055
1962
1840
1750
1746
1845
1970
2065
2089
2030
1935
1850
1797
1833
1904
1965
1990
1968
1887
1813
1798
1828
1923
2022
2093
2089
2002
1919
1865
1863
1921
2001
2064
2073
2031
1936
1839
1818
1887
2015
2134
2180
2134
2047
1954
1894
1907
1982
2082
2133
2109
1995
1869
1799
1813
1894
1986
2032
2033
1969
1847
1745
1703
1735
1824
1919
1981
1957
1861
1757
1699
1722
1807
1895
1962
1965
1894
1791
1722
1740
1823
1915
1970
1969
1920
1826
1721
1677
1717
1773
1822
1850
1835
1792
1759
1759
1841
1979
2131
2224
2191
2038
1840
1664
1565
1510
1463
1433
1392
1329
1267
1246
1296
1426
1594
1763
1879
1895
1818
1744
1714
1727
1813
1915
1997
2031
1974
1893
1835
1856
1937
2022
2096
2128
2109
2032
1961
1927
1971
2071
2159
2190
2156
2065
1982
1936
1955
2031
2119
2175
2176
2138
2077
2029
2032
2097
2176
2230
2231
2183
2109
2032
2018
2081
2173
2261
2306
2279
2214
2150
2127
2175
2274
2365
2431
2442
2373
2286
2214
2207
2261
2357
2433
2448
2386
2290
2196
2183
2256
2359
2444
2477
2443
2327
2199
2119
2110
2176
2260
2304
2283
2205
2098
1997
1974
2007
2080
2117
2110
2061
1953
1869
1851
1910
2000
2081
2105
2060
1952
1857
1808
1840
1920
2007
2054
2014
1926
1831
1776
1808
1900
1998
2068
2077
2007
1913
1822
1789
1821
1897
1996
2060
1983
1851
1775
1743
1790
1895
2007
2112
2116
2031
1921
1854
1851
1917
2000
2073
2096
2039
1964
1892
1869
1898
1969
2019
2029
1987
1905
1840
1808
1821
1878
1936
1968
1949
1875
1765
1676
1666
1747
1850
1930
1947
1889
1792
1701
1661
1707
1810
1904
1940
1910
1825
1743
1691
1706
1803
1915
1984
1971
1881
1757
1645
1599
1653
1765
1865
1919
1895
1871
1840
1872
2007
2169
2243
2221
2107
1911
1686
1493
1408
1393
1406
1456
1466
1442
1415
1424
1488
1604
1733
1845
1893
1867
1788
1726
1726
1782
1872
1943
1979
1962
1908
1845
1822
1873
1979
2075
2125
2110
2014
1939
1890
1905
1968
2043
2096
2119
2090
2011
1953
1908
1961
2053
2123
2159
2137
2055
1967
1923
1955
2064
2175
2247
2257
2181
2074
1984
1984
2064
2171
2286
2321
2263
2177
2078
2039
2107
2230
2346
2398
2406
2348
2269
2191
2190
2255
2320
2370
2375
2304
2225
2179
2177
2221
2293
2336
2331
2256
2160
2070
2033
2091
2192
2288
2322
2259
2127
1993
1927
1941
2011
2096
2134
2103
2038
1938
1856
1840
1887
1962
2032
2044
1995
1898
1823
1793
1849
1953
2055
2090
2046
1936
1833
1755
1774
1850
1936
2002
2023
1972
1891
1833
1829
1882
1977
2066
2094
2033
1918
1818
1789
1831
1925
2017
2065
2037
1963
1870
1825
1867
1968
2096
2165
2163
2097
1968
1856
1823
1872
1954
2000
1985
1931
1845
1795
1792
1829
1904
1967
2000
1975
1872
1757
1702
1725
1818
1917
1981
1990
1929
1813
1716
1712
1792
1904
1997
2031
1977
1877
1767
1729
1768
1861
1923
1938
1918
1825
1731
1683
1717
1814
1920
2016
2064
2055
2013
2000
2032
2099
2159
2176
2108
1936
1725
1527
1429
1426
1489
1578
1638
1646
1607
1573
1572
1638
1771
1890
1970
1979
1913
1840
1808
1849
1947
2031
2093
2106
2038
1936
1867
1860
1930
2032
2123
2167
2142
2035
1929
1878
1934
2059
2160
2226
2213
2125
2023
1942
1919
1971
2064
2120
2112
2062
1978
1910
1909
1983
2112
2225
2279
2267
2179
2096
2064
2113
2192
2272
2317
2320
2263
2164
2092
2083
2165
2293
2369
2367
2299
2203
2129
2112
2175
2270
2337
2359
2319
2218
2127
2069
2077
2141
2219
2275
2279
2221
2123
2032
2021
2071
2147
2198
2183
2101
1971
1877
1828
1887
1982
2086
2151
2118
2000
1877
1802
1811
1879
1951
2011
2009
1968
1895
1840
1830
1887
1985
2081
2116
2068
1941
1835
1813
1873
1990
2084
2114
2096
2011
1929
1901
1927
2002
2065
2094
2061
1965
1872
1824
1846
1921
2013
2103
2127
2087
2005
1940
1920
1956
2032
2126
2145
2105
2021
1910
1853
1858
1933
2015
2084
2070
1959
1821
1738
1738
1792
1877
1974
2013
1934
1811
1712
1699
1766
1871
1956
1997
1968
1872
1779
1741
1776
1877
1968
2038
2032
1943
1831
1738
1744
1805
1867
1894
1877
1817
1728
1657
1691
1823
1983
2128
2217
2231
2167
2036
1909
1841
1830
1826
1790
1703
1565
1414
1329
1332
1418
1565
1690
1755
1759
1721
1706
1730
1781
1863
1965
2031
2028
1954
1858
1794
1826
1917
2018
2113
2140
2089
1981
1893
1872
1922
2002
2084
2128
2107
2011
1931
1917
1986
2097
2166
2179
2131
2035
1950
1925
1955
2032
2131
2209
2215
2151
2054
1961
1930
2003
2118
2219
2271
2255
2162
2083
2075
2128
2231
2325
2373
2335
2234
2118
2073
2120
2211
2304
2373
2385
2319
2235
2174
2165
2222
2305
2367
2373
2307
2213
2127
2087
2119
2199
2271
2286
2234
2130
2038
1974
1984
2044
2099
2118
2093
2011
1922
1856
1881
1951
2037
2109
2122
2053
1939
1840
1792
1829
1919
2000
2053
2035
1967
1892
1827
1817
1897
1999
2067
2070
2000
1915
1841
1835
1892
1972
2061
2086
2019
1927
1856
1853
1904
1967
2023
2061
2037
1955
1862
1833
1875
1979
2094
2160
2153
2080
1978
1904
1900
1957
2061
2144
2154
2087
1962
1863
1813
1856
1936
2001
2022
1984
1897
1800
1741
1751
1826
1910
1953
1926
1847
1746
1683
1691
1778
1894
1979
2000
1946
1851
1772
1747
1803
1886
1970
2027
1995
1872
1741
1669
1666
1729
1813
1859
1872
1842
1809
1791
1839
1968
2128
2253
2286
2183
1983
1775
1631
1574
1555
1535
1495
1407
1317
1257
1264
1360
1521
1690
1817
1872
1843
1770
1713
1727
1818
1936
2027
2071
2030
1945
1864
1830
1878
1989
2101
2157
2145
2082
1999
1925
1916
1970
2067
2145
2162
2111
2031
1966
1966
2032
2135
2207
2223
2176
2085
1984
1946
1984
2080
2151
2191
2175
2098
2018
1984
2026
2132
2246
2323
2339
2272
2176
2122
2128
2197
2291
2364
2395
2336
2231
2147
2114
2159
2266
2368
2414
2397
2331
2239
2176
2193
2276
2374
2426
2401
2301
2167
2080
2073
2128
2208
2267
2273
2212
2103
1992
1923
1925
1977
2067
2128
2114
2023
1920
1854
1872
1949
2029
2103
2106
2016
1891
1783
1776
1859
1968
2045
2059
1981
1851
1761
1740
1787
1890
1989
2003
1970
1886
1807
1771
1808
1906
2012
2090
2093
2007
1911
1840
1838
1903
2000
2086
2105
2038
1927
1827
1791
1852
1963
2066
2126
2118
2047
1983
1929
1925
1973
2032
2086
2071
1985
1877
1791
1764
1809
1897
1968
1975
1921
1822
1744
1719
1770
1840
1907
1953
1925
1834
1735
1680
1727
1822
1909
1975
1975
1915
1818
1727
1712
1791
1872
1936
1962
1911
1808
1709
1648
1667
1748
1831
1889
1889
1853
1828
1850
1943
2106
2238
2231
2129
1936
1695
1474
1345
1311
1338
1386
1418
1391
1328
1314
1355
1458
1619
1774
1872
1904
1843
1761
1707
1730
1830
1966
2065
2074
2001
1911
1838
1828
1896
1994
2098
2157
2127
2043
1978
1954
1985
2074
2160
2203
2179
2081
1971
1941
1987
2077
2161
2222
2198
2127
2033
1962
1967
2055
2166
2254
2285
2256
2181
2098
2070
2128
2230
2330
2386
2355
2256
2151
2095
2137
2263
2389
2474
2462
2384
2288
2223
2221
2301
2420
2502
2526
2449
2315
2199
2149
2162
2234
2342
2403
2389
2315
2233
2189
2207
2276
2343
2359
2302
2191
2063
1973
1956
2007
2107
2178
2219
2177
2064
1936
1860
1869
1939
2023
2073
2039
1955
1867
1813
1846
1923
2001
2054
2038
1968
1871
1781
1771
1830
1934
2018
2057
2017
1943
1879
1885
1939
2018
2112
2133
2095
1998
1918
1856
1860
1930
2000
2064
2076
2014
1937
1881
1872
1947
2065
2169
2219
2183
2087
1985
1923
1938
2021
2100
2130
2083
1976
1885
1847
1863
1917
1968
1998
1989
1936
1831
1743
1713
1757
1847
1931
1968
1933
1841
1763
1734
1794
1907
1984
2014
1983
1884
1777
1722
1747
1837
1931
2013
2010
1925
1798
1702
1680
1728
1827
1911
1937
1879
1808
1792
1851
1982
2139
2234
2228
2131
1953
1761
1600
1494
1439
1424
1431
1424
1392
1354
1342
1401
1519
1659
1785
1863
1861
1801
1754
1770
1855
1974
2066
2107
2097
2035
1968
1929
1945
2015
2117
2195
2210
2146
2043
1966
1958
2019
2125
2207
2219
2160
2052
1963
1967
2032
2133
2217
2253
2234
2147
2061
2029
2091
2176
2247
2280
2262
2187
2128
2093
2117
2199
2321
2430
2451
2384
2276
2176
2149
2207
2308
2386
2433
2414
2335
2256
2219
2259
2355
2439
2494
2495
2430
2335
2254
2239
2295
2399
2475
2474
2386
2267
2154
2107
2147
2241
2338
2381
2326
2198
2060
1966
1968
2035
2130
2189
2177
2090
1968
1904
1895
1959
2039
2096
2087
2010
1920
1850
1825
1858
1934
2012
2074
2055
1957
1870
1818
1814
1885
1966
2033
2059
1991
1901
1823
1819
1902
2003
2102
2141
2093
1977
1883
1842
1879
1968
2037
2064
2039
1972
1901
1867
1934
2054
2157
2217
2227
2182
2078
1974
1925
1951
2043
2115
2113
2043
1920
1803
1743
1774
1851
1936
1975
1959
1902
1823
1779
1792
1856
1947
2030
2041
1963
1843
1750
1731
1777
1872
1967
2001
1955
1867
1791
1753
1791
1894
2001
2065
2037
1917
1767
1671
1680
1745
1827
1889
1911
1890
1855
1852
1933
2095
2250
2318
2288
2156
1941
1733
1587
1533
1507
1501
1493
1485
1443
1413
1431
1520
1675
1822
1936
2000
1969
1889
1806
1793
1847
1927
1997
2032
2010
1948
1887
1859
1907
2005
2117
2176
2167
2096
2000
1934
1950
2026
2112
2165
2159
2087
1981
1918
1917
2000
2106
2178
2205
2174
2093
2024
2016
2068
2150
2246
2303
2259
2170
2082
2025
2033
2133
2246
2323
2333
2263
2171
2098
2109
2182
2281
2365
2401
2365
2260
2176
2150
2189
2274
2370
2434
2411
2304
2192
2135
2154
2237
2345
2402
2389
2291
2172
2087
2067
2132
2202
2256
2256
2219
2125
2011
1961
1984
2054
2114
2128
2088
1995
1903
1840
1839
1913
2015
2074
2063
1981
1877
1810
1797
1872
1967
2026
2047
1989
1879
1783
1755
1809
1948
2067
2112
2081
1995
1914
1859
1872
1945
2032
2086
2075
1991
1884
1807
1791
1860
1973
2066
2082
2033
1962
1893
1856
1893
1984
2092
2140
2112
2030
1931
1860
1890
1982
2063
2110
2096
2000
1885
1806
1797
1867
1983
2076
2076
1991
1872
1772
1737
1770
1856
1957
2023
2015
1935
1831
1746
1741
1790
1863
1915
1921
1872
1789
1733
1760
1847
1949
2019
2023
1968
1867
1774
1717
1734
1798
1881
1936
1936
1902
1872
1879
1965
2112
2240
2271
2176
2014
1837
1683
1606
1559
1535
1555
1567
1518
1456
1410
1440
1535
1703
1840
1923
1920
1867
1809
1777
1810
1909
2000
2060
2057
1987
1901
1830
1831
1920
2062
2139
2143
2079
1968
1877
1855
1904
1999
2102
2163
2163
2085
1974
1901
1906
1994
2083
2146
2148
2079
1983
1936
1950
1981
2093
2189
2231
2199
2112
2017
1983
2034
2143
2238
2265
2224
2138
2061
2031
2085
2177
2273
2340
2345
2279
2185
2118
2118
2204
2305
2363
2350
2275
2161
2064
2030
2078
2169
2288
2367
2352
2247
2130
2054
2054
2124
2194
2243
2228
2161
2064
1956
1911
1941
2014
2081
2097
2031
1917
1808
1759
1783
1875
1979
2042
2030
1947
1858
1801
1815
1877
1951
1998
1994
1938
1843
1763
1756
1823
1919
1997
2031
1984
1876
1787
1771
1823
1907
1984
2032
2010
1920
1826
1776
1805
1909
2003
2054
2027
1968
1889
1817
1790
1851
1959
2043
2064
1999
1909
1837
1808
1860
1957
2033
2065
2019
1909
1805
1753
1776
1872
1979
2046
2021
1920
1792
1708
1703
1778
1856
1919
1933
1887
1821
1761
1759
1802
1869
1939
1982
1968
1918
1840
1783
1792
1869
1936
1983
1974
1889
1771
1680
1658
1703
1799
1887
1914
1872
1808
1782
1808
1919
2068
2183
2210
2129
1983
1833
1714
1658
1631
1616
1593
1535
1475
1423
1418
1474
1611
1755
1870
1925
1893
1806
1744
1735
1796
1909
2015
2071
2046
1957
1877
1854
1889
1977
2086
2129
2112
2032
1931
1865
1866
1939
2058
2142
2182
2137
2018
1922
1915
1995
2096
2182
2219
2174
2075
2000
1951
1971
2068
2172
2253
2262
2186
2094
2009
1983
2030
2131
2217
2250
2224
2158
2086
2064
2116
2223
2319
2353
2325
2272
2197
2134
2128
2213
2309
2368
2364
2305
2213
2160
2167
2218
2283
2320
2313
2254
2158
2068
2037
2091
2183
2254
2258
2203
2096
1985
1926
1943
2013
2081
2117
2105
2034
1920
1836
1841
1904
2001
2082
2087
2027
1925
1826
1793
1861
1952
2032
2078
2063
1995
1904
1807
1794
1882
2003
2096
2091
2000
1888
1808
1806
1861
1955
2057
2093
2063
1969
1871
1827
1861
1965
2070
2125
2102
2011
1917
1841
1847
1936
2055
2128
2145
2087
1986
1915
1921
1981
2075
2149
2160
2096
1963
1827
1755
1791
1902
1997
2044
2027
1938
1825
1765
1798
1886
1969
2000
1968
1882
1778
1703
1719
1811
1921
2005
2039
1994
1901
1808
1773
1808
1883
1968
2017
1995
1923
1828
1747
1714
1744
1808
1870
1882
1840
1774
1741
1798
1947
2112
2235
2267
2196
2034
1862
1735
1683
1666
1629
1573
1484
1378
1303
1299
1387
1535
1710
1811
1824
1799
1760
1728
1763
1850
1955
2032
2039
1980
1872
1779
1769
1833
1938
2058
2128
2125
2064
1985
1927
1938
2032
2141
2204
2210
2134
2027
1946
1912
1959
2054
2143
2181
2129
2030
1950
1931
1994
2112
2222
2269
2244
2161
2046
1988
2021
2128
2240
2328
2357
2302
2199
2111
2112
2190
2273
2331
2363
2346
2266
2176
2138
2166
2246
2344
2398
2391
2306
2205
2153
2167
2246
2332
2384
2372
2290
2176
2077
2064
2130
2212
2275
2298
2237
2118
2019
1969
2001
2103
2192
2213
2140
2006
1872
1810
1837
1922
2012
2094
2095
1987
1855
1750
1753
1834
1930
2007
2026
1973
1875
1797
1789
1835
1915
1986
2019
2014
1951
1863
1801
1811
1886
1967
2010
2003
1936
1828
1750
1767
1872
1993
2060
2040
1959
1850
1758
1744
1811
1919
2028
2101
2083
2000
1910
1857
1885
1968
2064
2127
2125
2063
1962
1878
1870
1927
2019
2098
2106
2039
1924
1807
1745
1751
1819
1909
1964
1935
1853
1742
1680
1706
1797
1887
1966
1980
1906
1790
1702
1697
1750
1846
1933
1968
1910
1810
1712
1683
1743
1852
1934
1963
1907
1805
1686
1607
1607
1665
1746
1818
1842
1835
1814
1840
1919
2047
2176
2225
2175
2011
1787
1584
1439
1387
1392
1407
1414
1390
1358
1338
1360
1424
1535
1712
1853
1916
1887
1809
1743
1738
1802
1907
2011
2038
1994
1926
1856
1848
1918
2023
2118
2167
2144
2064
1968
1920
1939
2032
2144
2229
2237
2176
2064
1957
1926
1987
2109
2192
2235
2206
2128
2032
1991
2035
2131
2224
2298
2302
2214
2112
2062
2070
2155
2255
2325
2339
2269
2169
2112
2137
2212
2331
2446
2487
2431
2333
2231
2175
2206
2288
2375
2421
2395
2320
2235
2194
2228
2318
2404
2453
2419
2307
2191
2112
2095
2132
2206
2263
2295
2240
2151
2076
2031
2037
2100
2150
2175
2126
2027
1919
1846
1872
1947
2029
2086
2085
2023
1929
1838
1813
1855
1951
2032
2076
2022
1916
1836
1808
1873
1968
2054
2115
2095
1998
1881
1799
1797
1863
1965
2047
2047
1987
1906
1827
1810
1879
1984
2081
2108
2064
1958
1851
1812
1865
1967
2067
2110
2070
1979
1891
1842
1860
1945
2062
2140
2145
2064
1968
1913
1929
1995
2112
2224
2263
2182
2023
1888
1833
1863
1935
1998
2029
2007
1919
1808
1743
1731
1806
1904
1997
2007
1930
1808
1734
1728
1803
1932
2018
2033
1981
1877
1767
1706
1744
1840
1933
1997
2001
1924
1851
1802
1814
1886
1957
1981
1937
1839
1726
1646
1638
1712
1847
2000
2128
2162
2133
2105
2067
2055
2041
2001
1922
1787
1600
1397
1250
1222
1277
1413
1535
1616
1617
1586
1565
1593
1699
1831
1954
2001
1955
1858
1776
1762
1831
1945
2059
2129
2136
2078
1995
1920
1927
2030
2143
2198
2193
2122
2016
1958
1946
2000
2081
2159
2181
2144
2064
1987
1962
1999
2112
2223
2289
2284
2211
2115
2027
2018
2107
2224
2309
2320
2262
2149
2063
2077
2159
2251
2350
2399
2374
2273
2187
2163
2197
2291
2391
2474
2469
2379
2271
2213
2239
2315
2395
2443
2457
2401
2306
2229
2210
2243
2316
2373
2384
2319
2207
2117
2092
2110
2159
2207
2240
2224
2131
2015
1936
1936
1998
2080
2138
2135
2063
1952
1867
1834
1860
1934
2006
2032
1979
1882
1795
1783
1836
1909
1983
2032
2007
1921
1840
1817
1855
1943
2046
2117
2108
2015
1904
1826
1824
1889
1983
2064
2079
2019
1913
1829
1789
1841
1954
2061
2094
2063
1989
1907
1853
1855
1926
2026
2103
2117
2067
1959
1889
1903
1978
2063
2128
2167
2138
2030
1939
1919
1951
1998
2032
2031
1968
1872
1776
1728
1744
1823
1907
1967
1968
1929
1853
1770
1755
1811
1898
1977
1999
1946
1857
1776
1754
1805
1893
1974
2007
1995
1915
1812
1745
1754
1822
1904
1971
1984
1903
1775
1691
1674
1754
1875
2000
2077
2057
1995
1994
2035
2096
2149
2154
2101
1968
1776
1562
1394
1344
1398
1520
1661
1712
1683
1616
1583
1609
1699
1821
1931
1999
1967
1869
1794
1786
1856
1961
2061
2101
2071
1992
1907
1838
1839
1943
2097
2203
2224
2131
2002
1922
1934
2014
2125
2221
2246
2192
2097
1997
1951
1987
2075
2178
2261
2249
2160
2047
1984
2044
2191
2317
2367
2338
2230
2110
2004
1998
2096
2237
2342
2381
2337
2244
2160
2128
2193
2304
2405
2448
2422
2330
2224
2164
2167
2270
2395
2469
2476
2399
2288
2205
2187
2239
2298
2337
2352
2320
2212
2107
2047
2079
2175
2257
2286
2235
2112
1970
1893
1906
1969
2042
2124
2151
2086
1970
1877
1871
1934
2008
2094
2130
2083
1983
1886
1849
1877
1952
2017
2034
2005
1931
1847
1808
1838
1904
1984
2061
2073
2007
1904
1803
1782
1855
1955
2061
2114
2074
1965
1875
1856
1891
1974
2035
2063
2062
1979
1874
1812
1837
1920
2037
2128
2156
2101
1991
1925
1936
1995
2096
2154
2130
2064
1968
1893
1870
1904
1991
2093
2144
2113
2010
1900
1840
1857
1927
1989
2025
2005
1932
1808
1699
1711
1798
1908
1997
2022
1982
1902
1821
1798
1861
1951
2021
2062
2038
1947
1845
1775
1779
1866
1962
2014
2018
1955
1843
1747
1728
1790
1883
1992
2046
2013
1966
1923
1949
2069
2220
2310
2319
2227
2039
1837
1677
1605
1600
1634
1652
1635
1584
1506
1473
1522
1657
1810
1936
2003
1992
1918
1855
1837
1875
1968
2058
2094
2058
1967
1871
1823
1859
1961
2063
2124
2133
2071
1965
1913
1936
2006
2110
2160
2184
2153
2079
1979
1931
1948
2043
2145
2194
2170
2086
1985
1935
1963
2063
2167
2269
2305
2237
2125
2047
2037
2099
2186
2270
2304
2267
2158
2061
2023
2075
2175
2260
2326
2315
2240
2159
2128
2153
2243
2352
2417
2416
2352
2243
2141
2100
2146
2229
2304
2327
2299
2215
2129
2085
2097
2141
2192
2210
2164
2042
1923
1851
1856
1929
2015
2096
2099
2010
1911
1847
1855
1922
2022
2096
2111
2045
1925
1840
1795
1824
1885
1957
2001
1991
1923
1847
1815
1837
1903
1967
2019
2011
1938
1856
1792
1785
1862
1970
2045
2061
2000
1904
1803
1749
1793
1875
1949
1994
1979
1890
1798
1739
1765
1854
1952
2032
2038
1958
1851
1778
1783
1856
1933
2000
2012
1968
1887
1815
1803
1872
1977
2085
2131
2097
1983
1861
1771
1741
1786
1866
1927
1932
1872
1790
1724
1717
1778
1866
1935
1943
1879
1764
1619
1535
1600
1711
1840
1927
1934
1859
1754
1694
1712
1791
1901
1975
1969
1885
1763
1664
1648
1707
1793
1862
1881
1840
1744
1674
1663
1740
1888
2021
2126
2157
2087
1958
1808
1729
1746
1790
1787
1712
1571
1408
1291
1259
1342
1491
1659
1777
1790
1721
1648
1627
1687
1799
1895
1947
1939
1857
1754
1684
1705
1799
1904
1984
1981
1897
1808
1742
1756
1843
1949
2021
2027
1968
1889
1805
1765
1813
1901
1979
2023
2010
1935
1840
1793
1821
1901
1997
2073
2092
2023
1916
1835
1842
1935
2060
2125
2137
2101
2002
1919
1885
1934
2026
2112
2162
2145
2086
2023
2015
2032
2099
2176
2223
2207
2154
2060
1974
1958
2031
2128
2181
2197
2146
2039
1957
1934
1984
2078
2163
2198
2163
2059
1936
1871
1887
1945
2000
2047
2031
1947
1819
1731
1709
1772
1880
1958
1982
1936
1838
1740
1695
1719
1794
1877
1922
1903
1852
1766
1680
1679
1751
1856
1907
1904
1825
1761
1703
1681
1740
1853
1943
1980
1941
1837
1731
1691
1739
1829
1906
1953
1942
1883
1807
1740
1735
1818
1904
1935
1905
1831
1742
1686
1698
1783
1882
1968
2001
1972
1903
1819
1801
1845
1924
2000
2062
2027
1917
1802
1732
1727
1767
1856
1920
1911
1840
1733
1655
1641
1682
1751
1808
1835
1801
1723
1650
1629
1663
1759
1859
1926
1935
1857
1744
1664
1697
1794
1889
1955
1957
1901
1794
1687
1635
1657
1727
1802
1818
1775
1694
1633
1619
1693
1813
1953
2064
2119
2110
2011
1909
1851
1828
1823
1789
1715
1572
1395
1267
1255
1327
1445
1557
1645
1663
1630
1586
1595
1664
1767
1872
1960
1986
1936
1868
1814
1818
1877
1965
2043
2063
1995
1889
1819
1831
1915
2021
2096
2112
2047
1952
1866
1845
1894
1974
2065
2125
2126
2046
1956
1904
1929
2013
2110
2179
2192
2137
2066
1999
1981
2047
2150
2238
2272
2232
2151
2064
2023
2067
2155
2273
2350
2319
2221
2126
2063
2064
2161
2283
2370
2385
2319
2230
2160
2144
2201
2289
2369
2398
2365
2263
2175
2131
2155
2224
2285
2306
2282
2183
2096
2023
2033
2112
2193
2252
2239
2147
2011
1888
1840
1881
1975
2065
2096
2046
1959
1865
1823
1849
1939
2022
2053
2012
1941
1857
1817
1835
1890
1998
2106
2112
2044
1943
1854
1831
1887
2000
2095
2099
2029
1907
1817
1782
1827
1917
2021
2094
2078
1983
1879
1830
1842
1929
2000
2065
2092
2046
1953
1871
1864
1936
2045
2141
2175
2142
2071
1996
1966
1991
2047
2130
2193
2175
2062
1927
1840
1819
1873
1961
2026
2034
1986
1907
1830
1805
1854
1949
2023
2064
2029
1925
1817
1753
1781
1869
1963
2031
2033
1950
1842
1803
1815
1890
1986
2043
2045
1965
1856
1776
1767
1830
1910
1967
1961
1898
1795
1737
1744
1822
1961
2113
2227
2283
2250
2143
2018
1948
1942
1936
1882
1767
1600
1424
1297
1276
1364
1521
1657
1735
1744
1702
1667
1680
1744
1861
1981
2040
2046
1987
1906
1869
1904
2003
2135
2234
2239
2180
2094
2015
2019
2089
2197
2277
2274
2202
2103
2039
2032
2065
2143
2215
2258
2256
2198
2129
2097
2118
2185
2275
2349
2361
2285
2160
2094
2095
2182
2305
2405
2435
2375
2277
2189
2163
2221
2319
2422
2497
2510
2438
2354
2299
2325
2403
2485
2537
2551
2482
2375
2306
2295
2353
2432
2515
2547
2513
2419
2311
2253
2277
2343
2386
2421
2400
2307
2224
2160
2175
2261
2343
2384
2357
2255
2144
2055
2027
2081
2177
2254
2284
2242
2132
2021
1969
2010
2087
2147
2175
2155
2086
2005
1943
1952
2016
2091
2138
2147
2091
1982
1923
1933
1989
2081
2145
2163
2126
2037
1966
1923
1951
2033
2123
2160
2125
2033
1937
1891
1936
2041
2153
2219
2222
2156
2055
1969
1955
2015
2114
2199
2231
2177
2086
2007
1991
2057
2175
2286
2341
2319
2233
2155
2098
2102
2174
2244
2290
2276
2191
2055
1951
1921
1974
2079
2167
2192
2135
2014
1908
1882
1935
2030
2112
2156
2134
2038
1935
1867
1881
1948
2042
2122
2125
2034
1942
1893
1898
1954
2059
2133
2158
2111
2018
1934
1859
1856
1930
1995
2041
2018
1968
1899
1881
1959
2103
2246
2366
2389
2308
2160
2003
1886
1823
1776
1728
1653
1535
1429
1365
1379
1481
1634
1789
1902
1935
1886
1841
1839
1893
1994
2086
2143
2149
2089
1999
1939
1945
2039
2172
2279
2320
2274
2175
2087
2032
2045
2123
2223
2272
2230
2135
2054
2027
2085
2188
2293
2373
2385
2323
2234
2159
2144
2191
2251
2319
2361
2339
2278
2208
2182
2224
2301
2386
2448
2461
2402
2303
2227
2240
2320
2417
2480
2493
2436
2359
2303
2301
2369
2476
2559
2624
2586
2480
2374
2325
2384
2497
2594
2640
2609
2502
2398
2334
2334
2406
2492
2512
2466
2379
2288
2203
2161
2183
2246
2309
2305
2227
2125
2023
1991
2032
2113
2181
2221
2197
2114
2027
1962
1970
2035
2102
2151
2149
2071
1969
1901
1901
1966
2064
2125
2133
2081
1983
1897
1858
1904
1989
2081
2128
2101
2023
1943
1890
1907
1985
2061
2123
2129
2079
1993
1927
1922
1984
2081
2149
2167
2105
1999
1925
1916
1968
2083
2171
2195
2160
2079
1996
1958
1987
