2133
2061
1969
1936
1963
2035
2125
2177
2173
2112
2022
1967
1966
2025
2118
2192
2209
2155
2064
1981
1957
2000
2094
2171
2207
2183
2107
2008
1947
1949
2002
2080
2131
2153
2128
2107
2135
2251
2448
2677
2890
3053
3146
3184
3216
3280
3383
3462
3446
3318
3083
2759
2423
2154
1993
1938
1933
1941
1929
1870
1792
1745
1774
1853
1943
2011
2029
1977
1882
1808
1795
1862
1967
2059
2096
2073
1990
1905
1867
1892
1965
2037
2096
2089
2021
1920
1846
1856
1933
2029
2118
2151
2112
2024
1946
1917
1946
2023
2113
2166
2160
2094
2011
1968
1993
2065
2147
2194
2191
2149
2096
2054
2055
2103
2198
2292
2320
2303
2245
2188
2160
2197
2286
2378
2417
2384
2283
2172
2106
2111
2194
2298
2361
2355
2287
2176
2087
2064
2097
2165
2226
2239
2183
2087
1989
1959
1991
2062
2131
2175
2145
2054
1958
1907
1935
2004
2094
2146
2138
2061
1957
1879
1872
1933
2025
2111
2128
2074
1981
1905
1889
1943
2038
2125
2167
2149
2069
1981
1934
1951
2032
2119
2170
2163
2080
1970
1894
1883
1941
2043
2119
2133
2089
1987
1913
1886
1920
1991
2070
2110
2083
1998
1913
1861
1886
1961
2042
2103
2097
2022
1933
1859
1866
1932
2016
2091
2119
2079
1986
1903
1879
1922
1972
2039
2096
2074
1985
1891
1855
1886
1971
2070
2128
2109
2021
1923
1855
1850
1899
1959
2015
2022
1985
1901
1819
1793
1834
1904
1984
2023
2000
1920
1825
1765
1781
1855
1936
1991
1995
1931
1838
1761
1753
1809
1891
1956
1969
1920
1833
1749
1719
1756
1839
1903
1917
1874
1789
1700
1664
1714
1843
1997
2134
2229
2277
2309
2361
2470
2643
2829
2977
3039
2993
2837
2640
2463
2339
2224
2108
1982
1834
1667
1520
1438
1450
1521
1629
1696
1703
1648
1562
1495
1511
1587
1667
1727
1730
1680
1596
1514
1494
1535
1643
1730
1766
1729
1634
1535
1499
1520
1600
1687
1745
1746
1699
1627
1575
1578
1639
1714
1776
1793
1744
1661
1584
1563
1611
1691
1775
1822
1806
1729
1647
1612
1649
1747
1850
1913
1906
1839
1745
1684
1696
1763
1839
1905
1918
1873
1801
1741
1724
1773
1843
1903
1934
1903
1823
1730
1679
1693
1751
1813
1840
1808
1728
1641
1579
1572
1622
1699
1763
1776
1717
1616
1520
1490
1525
1600
1674
1712
1683
1600
1505
1469
1499
1593
1681
1742
1742
1680
1598
1532
1535
1614
1695
1755
1776
1727
1641
1563
1531
1578
1647
1716
1762
1743
1664
1571
1522
1535
1616
1706
1771
1774
1719
1641
1584
1591
1665
1748
1808
1831
1795
1719
1651
1622
1659
1728
1799
1828
1806
1719
1631
1585
1610
1685
1769
1835
1840
1779
1702
1643
1646
1701
1777
1845
1869
1821
1735
1657
1634
1680
1755
1827
1854
1818
1735
1664
1628
1646
1714
1800
1849
1837
1765
1680
1635
1647
1709
1779
1843
1852
1802
1717
1655
1635
1681
1767
1835
1870
1840
1756
1662
1613
1634
1710
1777
1826
1808
1718
1648
1611
1650
1761
1899
2033
2137
2182
2206
2243
2320
2465
2624
2768
2859
2862
2766
2608
2437
2316
2233
2143
2041
1909
1745
1595
1488
1465
1523
1628
1708
1742
1718
1649
1584
1567
1619
1715
1792
1826
1791
1706
1616
1568
1590
1666
1762
1825
1829
1765
1674
1601
1600
1667
1764
1838
1856
1808
1724
1648
1634
1696
1792
1886
1931
1906
1819
1727
1680
1706
1786
1877
1935
1935
1872
1793
1737
1737
1792
1885
1969
2005
1968
1894
1827
1818
1868
1955
2027
2063
2024
1925
1825
1769
1777
1849
1936
2000
1998
1929
1839
1758
1739
1778
1855
1915
1923
1858
1756
1679
1648
1687
1764
1835
1866
1833
1745
1667
1632
1664
1741
1807
1838
1809
1727
1627
1566
1570
1633
1715
1789
1808
1762
1680
1607
1584
1613
1679
1745
1783
1760
1683
1601
1565
1600
1686
1785
1849
1850
1787
1706
1636
1627
1680
1767
1842
1856
1800
1710
1620
1595
1648
1741
1824
1871
1851
1775
1685
1646
1676
1757
1840
1893
1884
1808
1717
1656
1671
1762
1867
1939
1957
1902
1803
1719
1695
1743
1837
1917
1946
1904
1805
1707
1659
1680
1766
1855
1909
1905
1841
1745
1680
1682
1750
1840
1904
1917
1871
1776
1689
1654
1691
1778
1866
1907
1893
1824
1754
1722
1749
1822
1904
1961
1947
1873
1779
1714
1714
1767
1835
1889
1911
1901
1866
1861
1923
2067
2246
2423
2559
2655
2663
2647
2659
2720
2799
2834
2801
2675
2460
2195
1955
1806
1754
1771
1799
1805
1754
1671
1603
1601
1671
1774
1855
1919
1904
1814
1729
1690
1725
1803
1883
1930
1919
1849
1744
1676
1671
1735
1830
1907
1935
1890
1803
1723
1702
1747
1840
1926
1975
1955
1872
1801
1787
1826
1907
1998
2064
2069
2012
1933
1869
1881
1948
2042
2125
2150
2111
2027
1965
1952
2011
2123
2231
2283
2255
2164
2073
2026
2047
2118
2199
2256
2263
2202
2121
2054
2039
2095
2161
2224
2239
2192
2101
1999
1947
1968
2033
2107
2131
2099
2005
1915
1873
1905
1983
2064
2112
2096
2007
1912
1842
1845
1904
1984
2046
2063
2004
1922
1850
1825
1873
1958
2032
2071
2037
1950
1863
1825
1855
1936
2015
2070
2064
1990
1898
1823
1819
1892
1986
2066
2078
2027
1949
1883
1872
1919
2001
2079
2107
2071
1975
1887
1843
1870
1935
2015
2084
2091
2032
1949
1887
1877
1936
2020
2085
2096
2043
1962
1898
1886
1939
2033
2126
2171
2148
2064
1966
1904
1922
1989
2074
2128
2109
2012
1903
1825
1823
1883
1971
2047
2067
2007
1911
1823
1798
1838
1921
2002
2046
2007
1920
1826
1776
1803
1891
1995
2059
2047
1984
1898
1831
1827
1889
1975
2042
2061
2000
1898
1798
1753
1782
1867
1962
2045
2094
2099
2119
2180
2306
2498
2710
2881
2978
2992
2973
2958
2960
2959
2928
2826
2635
2374
2112
1886
1757
1724
1754
1810
1849
1840
1785
1717
1685
1722
1801
1889
1950
1951
1890
1804
1735
1740
1794
1871
1925
1939
1899
1808
1734
1717
1774
1861
1934
1968
1943
1867
1776
1734
1758
1837
1926
1991
1998
1949
1870
1808
1816
1887
1990
2090
2109
2069
1984
1905
1885
1931
2010
2095
2133
2112
2039
1968
1937
1984
2090
2192
2258
2257
2199
2117
2047
2058
2126
2209
2269
2281
2224
2129
2043
2013
2041
2100
2153
2174
2129
2032
1948
1885
1894
1966
2044
2100
2092
2007
1904
1815
1797
1856
1933
1983
1989
1936
1851
1775
1749
1797
1883
1963
1987
1949
1850
1747
1702
1728
1814
1909
1970
1974
1915
1823
1754
1749
1815
1910
1999
2032
1984
1895
1808
1778
1819
1889
1955
1980
1949
1881
1808
1767
1786
1857
1938
1995
1984
1913
1824
1754
1749
1809
1904
1984
2005
1941
1841
1757
1734
1777
1856
1930
1967
1938
1863
1776
1730
1759
1847
1941
2010
2015
1967
1891
1840
1853
1914
1983
2032
2031
1978
1884
1805
1776
1813
1889
1957
1986
1951
1865
1776
1732
1751
1819
1891
1940
1933
1866
1775
1710
1715
1792
1894
1967
1978
1936
1842
1759
1741
1791
1874
1943
1968
1936
1862
1797
1776
1799
1859
1932
1973
1955
1879
1797
1764
1814
1943
2116
2298
2443
2528
2590
2655
2768
2927
3107
3269
3357
3307
3114
2852
2597
2369
2208
2097
2000
1885
1744
1622
1535
1553
1629
1712
1776
1797
1754
1673
1602
1598
1650
1743
1823
1865
1843
1771
1693
1663
1690
1763
1846
1903
1904
1854
1781
1724
1719
1780
1862
1925
1937
1895
1808
1730
1702
1744
1831
1918
1969
1961
1889
1811
1776
1815
1910
2005
2065
2064
1989
1901
1842
1855
1932
2023
2101
2128
2097
2032
1974
1965
2005
2105
2192
2245
2238
2173
2096
2037
2063
2123
2192
2235
2214
2133
2052
1981
1970
2011
2078
2123
2113
2035
1924
1836
1802
1837
1904
1972
2001
1967
1866
1762
1719
1744
1818
1901
1950
1943
1882
1797
1743
1745
1818
1917
1991
2000
1957
1862
1779
1755
1810
1899
1958
1981
1958
1884
1809
1775
1805
1878
1968
2023
2011
1939
1840
1759
1750
1807
1890
1967
1985
1933
1834
1751
1725
1763
1836
1918
1965
1954
1882
1799
1755
1769
1824
1887
1933
1925
1858
1767
1697
1698
1772
1872
1952
1971
1925
1841
1765
1744
1794
1889
1983
2047
2037
1965
1878
1830
1850
1920
1984
2033
2022
1947
1846
1774
1771
1834
1918
1984
2000
1939
1839
1741
1707
1741
1825
1904
1937
1905
1822
1728
1680
1712
1802
1904
1978
1982
1909
1809
1734
1726
1783
1870
1948
1980
1934
1850
1773
1741
1773
1840
1907
1941
1921
1856
1815
1834
1943
2141
2363
2585
2756
2865
2949
3037
3175
3348
3531
3648
3568
3327
3002
2655
2339
2119
1989
1914
1845
1746
1627
1519
1477
1515
1616
1726
1800
1809
1742
1649
1590
1596
1659
1743
1809
1825
1783
1707
1634
1602
1645
1725
1803
1857
1859
1803
1728
1685
1715
1798
1886
1948
1949
1883
1794
1743
1745
1812
1903
1973
2000
1968
1893
1826
1808
1856
1935
2014
2072
2065
2011
1953
1929
1968
2067
2169
2246
2256
2198
2112
2047
2054
2115
2215
2294
2308
2253
2157
2069
2038
2087
2172
2247
2273
2227
2127
2015
1949
1956
2011
2090
2130
2114
2029
1915
1835
1831
1895
1987
2066
2079
2013
1917
1824
1793
1837
1904
1983
2019
1995
1911
1819
1778
1798
1873
1963
2014
2009
1942
1863
1808
1797
1855
1927
1984
2000
1951
1855
1772
1746
1795
1883
1969
2017
1993
1913
1820
1773
1787
1857
1943
1996
1983
1908
1811
1756
1769
1839
1925
1991
2001
1946
1866
1802
1785
1840
1921
2001
2054
2032
1949
1853
1799
1815
1887
1971
2032
2029
1967
1885
1823
1830
1897
1982
2058
2089
2047
1977
1915
1899
1950
2032
2103
2127
2093
2000
1914
1863
1886
1962
2035
2086
2064
1975
1863
1783
1777
1840
1922
1997
2018
1975
1895
1831
1819
1870
1957
2034
2075
2037
1951
1863
1810
1825
1897
1980
2035
2033
1969
1885
1820
1814
1872
1939
1984
1975
1905
1799
1715
1703
1791
1941
2112
2255
2352
2416
2480
2585
2745
2945
3147
3307
3397
3363
3209
3009
2837
2694
2539
2365
2181
1981
1789
1641
1584
1619
1717
1811
1863
1851
1787
1719
1684
1712
1775
1846
1895
1883
1814
1742
1687
1709
1776
1856
1917
1927
1877
1798
1730
1718
1770
1852
1934
1979
1957
1881
1796
1763
1791
1871
1955
2015
2009
1939
1853
1795
1807
1875
1971
2055
2084
2036
1948
1862
1840
1894
1984
2087
2146
2137
2075
2003
1973
2000
2089
2175
2232
2227
2161
2076
2023
2030
2106
2191
2249
2255
2192
2094
1995
1955
1987
2064
2128
2154
2112
2021
1929
1879
1904
1967
2027
2062
2030
1942
1849
1790
1791
1853
1932
1999
2014
1965
1868
1789
1770
1815
1893
1972
2001
1971
1873
1773
1726
1757
1838
1932
1997
1997
1939
1857
1795
1791
1855
1936
1999
2013
1963
1873
1793
1767
1809
1902
1972
2007
1983
1907
1836
1804
1840
1915
1993
2032
2015
1934
1837
1762
1774
1851
1949
2026
2045
1999
1902
1807
1774
1814
1905
1990
2019
1992
1909
1807
1744
1764
1847
1937
2000
2005
1954
1883
1837
1847
1918
2002
2070
2091
2031
1927
1847
1822
1857
1921
1983
2007
1986
1920
1840
1794
1811
1891
1969
2011
1995
1914
1818
1743
1747
1820
1919
1990
2011
1974
1893
1819
1794
1834
1907
1984
2019
1989
1905
1823
1791
1829
1907
1993
2039
2015
1932
1824
1747
1735
1798
1892
1991
2057
2061
2047
2069
2159
2325
2530
2741
2889
2951
2944
2907
2882
2878
2878
2832
2735
2546
2293
2031
1835
1737
1742
1791
1840
1853
1813
1744
1690
1681
1738
1838
1920
1966
1942
1872
1793
1753
1776
1852
1930
1983
1985
1925
1841
1779
1778
1839
1917
1977
1996
1958
1874
1804
1791
1845
1935
2016
2041
2002
1916
1829
1791
1834
1936
2035
2100
2091
2026
1946
1904
1925
1995
2095
2173
2199
2163
2077
2000
1984
2041
2139
2221
2263
2250
2192
2113
2064
2083
2154
2230
2267
2254
2186
2101
2027
2015
2077
2160
2224
2231
2176
2078
1982
1945
1975
2043
2117
2148
2112
2013
1926
1870
1872
1936
1997
2037
2032
1983
1909
1861
1867
1929
2010
2077
2092
2043
1964
1887
1867
1914
1999
2091
2134
2113
2028
1934
1878
1887
1953
2019
2067
2047
1978
1901
1851
1857
1923
2009
2082
2111
2066
1974
1891
1859
1899
1982
2061
2094
2080
1984
1897
1856
1884
1961
2033
2083
2065
1985
1899
1840
1851
1910
1987
2042
2058
2015
1942
1874
1849
1893
1982
2077
2125
2115
2039
1954
1913
1931
2000
2080
2130
2118
2033
1936
1855
1841
1902
1982
2043
2055
1999
1905
1819
1798
1845
1934
2009
2046
2021
1947
1867
1827
1847
1911
1985
2043
2035
1968
1879
1821
1819
1888
1983
2064
2076
2012
1914
1826
1792
1827
1904
1973
2002
1973
1902
1840
1840
1920
2081
2256
2416
2522
2559
2594
2626
2711
2836
2969
3056
3028
2883
2658
2421
2224
2089
2015
1988
1949
1869
1766
1671
1622
1662
1754
1852
1915
1914
1856
1773
1715
1726
1796
1887
1959
1971
1919
1829
1747
1726
1769
1846
1930
1968
1957
1889
1799
1746
1766
1840
1920
1979
1981
1922
1842
1789
1793
1859
1943
2014
2026
1975
1881
1808
1794
1853
1948
2033
2077
2047
1979
1900
1865
1907
1999
2103
2178
2182
2128
2053
1995
1995
2057
2138
2201
2224
2177
2096
2005
1975
2015
2097
2170
2201
2161
2066
1967
1914
1919
1982
2063
2112
2105
2026
1935
1865
1856
1911
1988
2038
2047
1987
1892
1805
1776
1829
1916
1997
2037
2010
1929
1840
1791
1809
1887
1970
2023
2021
1958
1872
1813
1815
1873
1949
2011
2032
1991
1910
1827
1803
1843
1920
1998
2031
1999
1920
1840
1798
1820
1892
1974
2022
2000
1924
1823
1757
1770
1835
1919
1991
2013
1971
1885
1797
1770
1805
1874
1952
1993
1975
1901
1819
1781
1813
1895
1983
2045
2043
1983
1895
1841
1845
1903
1973
2031
2042
1995
1904
1817
1786
1810
1863
1936
1962
1935
1857
1783
1746
1775
1843
1920
1971
1969
1905
1826
1763
1766
1834
1917
1979
1982
1915
1825
1747
1734
1787
1877
1967
2005
1968
1888
1797
1738
1744
1802
1872
1920
1929
1885
1819
1791
1856
1999
2171
2339
2465
2526
2545
2558
2611
2710
2829
2911
2902
2775
2585
2350
2137
1993
1928
1902
1872
1815
1719
1626
1566
1584
1671
1776
1845
1866
1819
1735
1667
1653
1710
1801
1876
1910
1879
1799
1721
1691
1725
1803
1882
1936
1936
1875
1794
1739
1751
1826
1914
1979
1987
1936
1843
1758
1741
1794
1883
1967
2010
1984
1910
1827
1779
1807
1877
1972
2045
2053
1999
1920
1872
1879
1949
2042
2121
2147
2103
2017
1958
1959
2020
2128
2209
2239
2199
2109
2004
1959
1983
2064
2134
2176
2155
2074
1968
1901
1899
1953
2033
2094
2096
2032
1938
1861
1839
1873
1939
1999
2027
1989
1906
1827
1778
1808
1879
1966
2013
2010
1938
1847
1775
1771
1829
1903
1957
1971
1936
1859
1792
1783
1837
1919
1985
2011
1969
1893
1815
1791
1826
1906
1993
2042
2026
1951
1850
1783
1778
1845
1935
2008
2022
1973
1885
1803
1776
1817
1902
1973
1999
1962
1881
1801
1762
1795
1882
1967
2031
2031
1969
1879
1811
1808
1872
1953
2019
2039
1995
1919
1866
1860
1919
2004
2086
2112
2079
1989
1904
1846
1862
1926
1996
2039
2037
1978
1892
1840
1840
1894
1963
2016
2019
1967
1872
1797
1778
1830
1912
1985
2026
2007
1935
1847
1798
1822
1907
1991
2038
2034
1971
1889
1825
1823
1885
1970
2027
2023
1967
1877
1805
1792
1872
2002
2149
2274
2340
2370
2415
2495
2625
2791
2958
3085
3134
3071
2938
2774
2638
2530
2431
2318
2174
2001
1833
1712
1665
1711
1797
1881
1927
1912
1853
1775
1734
1772
1842
1922
1971
1958
1889
1803
1750
1766
1835
1925
1998
2011
1966
1879
1811
1797
1847
1927
2002
2041
2023
1940
1870
1834
1854
1926
2031
2099
2110
2037
1948
1886
1879
1934
2022
2103
2135
2114
2043
1983
1971
2026
2110
2186
2224
2211
2139
2074
2035
2075
2166
2257
2320
2316
2243
2159
2093
2085
2139
2214
2277
2291
2244
2158
2066
2026
2061
2126
2183
2204
2163
2086
1994
1936
1941
2000
2075
2127
2117
2038
1937
1872
1869
1920
1999
2061
2065
2007
1931
1869
1856
1903
1983
2065
2097
2066
1973
1894
1851
1882
1968
2059
2105
2091
2018
1926
1856
1850
1909
1984
2035
2039
1982
1893
1823
1814
1873
1968
2038
2064
2027
1946
1867
1819
1842
1920
2000
2065
2062
1991
1906
1843
1846
1909
1994
2067
2085
2034
1947
1861
1829
1856
1935
2003
2042
2006
1920
1839
1792
1815
1894
1983
2031
2023
1971
1903
1859
1872
1939
2032
2114
2133
2093
1991
1903
1871
1904
1974
2047
2074
2031
1936
1840
1781
1797
1868
1947
2006
2000
1935
1841
1775
1776
1838
1923
1986
1997
1943
1851
1773
1744
1785
1861
1941
1999
1987
1911
1830
1795
1829
1904
1974
2006
1970
1881
1781
1712
1701
1753
1843
1936
1994
1995
1983
1995
2090
2256
2466
2679
2847
2941
2960
2957
2971
3007
3019
2983
2879
2670
2366
2075
1854
1745
1728
1755
1795
1808
1766
1694
1623
1605
1659
1750
1839
1873
1847
1766
1685
1652
1679
1754
1839
1887
1873
1797
1703
1646
1659
1744
1840
1910
1923
1875
1792
1715
1712
1775
1856
1922
1957
1934
1857
1782
1744
1773
1854
1938
1991
1983
1917
1840
1797
1829
1907
1999
2074
2096
2064
1988
1919
1911
1977
2080
2175
2229
2224
2166
2103
2075
2107
2176
2258
2314
2303
2234
2143
2067
2055
2109
2176
2228
2226
2159
2064
1968
1927
1954
2011
2067
2093
2064
1975
1887
1833
1843
1894
1958
2000
1991
1920
1818
1754
1759
1829
1923
1990
2001
1958
1886
1826
1810
1853
1925
1997
2023
1995
1913
1819
1772
1797
1875
1957
2011
2000
1926
1838
1775
1776
1828
1910
1986
2007
1962
1872
1807
1791
1827
1894
1959
1980
1942
1856
1765
1730
1770
1865
1951
2002
1987
1919
1831
1776
1776
1840
1929
1992
2002
1947
1858
1782
1762
1808
1894
1968
2000
1969
1878
1792
1755
1779
1849
1936
1991
1984
1925
1854
1808
1827
1897
1986
2075
2112
2090
2014
1946
1921
1962
2031
2096
2117
2071
1968
1860
1807
1826
1902
1973
2019
2002
1924
1814
1738
1749
1830
1932
2000
2018
1971
1904
1839
1814
1854
1935
2006
2032
1991
1899
1808
1777
1810
1899
1983
2030
2018
1941
1850
1783
1776
1818
1873
1914
1921
1875
1813
1782
1834
1970
2165
2369
2543
2661
2739
2816
2933
3119
3327
3527
3646
3613
3397
3115
2817
2553
2353
2195
2086
1979
1861
1733
1632
1603
1648
1727
1799
1840
1826
1762
1701
1677
1710
1800
1876
1917
1903
1838
1753
1697
1695
1744
1839
1925
1957
1914
1834
1758
1735
1791
1878
1967
1999
1972
1889
1808
1773
1810
1904
1990
2047
2039
1981
1895
1835
1849
1922
2021
2102
2118
2078
2000
1947
1948
2007
2112
2209
2262
2245
2174
2109
2080
2118
2195
2282
2350
2362
2303
2229
2177
2190
2243
2323
2386
2403
2337
2237
2142
2098
2128
2190
2243
2256
2193
2090
1984
1935
1953
2019
2090
2119
2095
2009
1914
1846
1842
1895
1964
2017
2029
1980
1892
1823
1804
1845
1923
2001
2037
2007
1920
1839
1804
1837
1920
2011
2067
2047
1975
1888
1821
1823
1879
1956
2023
2033
1980
1889
1818
1794
1839
1921
2005
2047
2015
1929
1835
1790
1811
1887
1968
2021
2019
1957
1860
1805
1808
1871
1946
2011
2028
1974
1885
1802
1780
1825
1901
1973
2003
1975
1895
1809
1773
1809
1897
1983
2032
2021
1953
1865
1792
1794
1855
1933
1998
2019
1984
1919
1859
1862
1920
2001
2069
2099
2079
2021
1958
1936
1964
2032
2108
2150
2132
2058
1959
1883
1871
1921
1999
2063
2061
1995
1903
1808
1778
1808
1872
1939
1977
1962
1894
1823
1786
1806
1877
1959
2002
1989
1910
1819
1763
1774
1837
1926
2000
2026
1983
1892
1819
1811
1863
1933
1982
1979
1915
1808
1712
1685
1744
1875
2031
2176
2278
2339
2391
2485
2651
2864
3080
3260
3377
3403
3315
3159
2994
2859
2704
2508
2290
2047
1813
1634
1535
1562
1627
1708
1773
1776
1718
1648
1616
1649
1729
1813
1877
1878
1813
1718
1648
1637
1698
1792
1888
1933
1904
1821
1741
1695
1714
1791
1870
1922
1918
1855
1777
1723
1733
1799
1873
1936
1946
1895
1821
1775
1776
1835
1923
1999
2035
2011
1937
1867
1843
1885
1975
2064
2125
2128
2083
2017
1979
2002
2096
2192
2278
2303
2266
2187
2103
2075
2112
2182
2245
2275
2243
2158
2070
2019
2032
2103
2175
2215
2195
2111
2000
1930
1917
1963
2023
2062
2038
1974
1875
1789
1771
1819
1895
1968
1990
1951
1863
1776
1731
1737
1799
1882
1942
1951
1895
1810
1762
1776
1850
1931
1989
2001
1957
1867
1792
1777
1823
1891
1963
1988
1961
1890
1815
1787
1814
1887
1957
1998
1980
1904
1810
1746
1757
1834
1911
1968
1978
1936
1855
1780
1775
1829
1904
1955
1970
1923
1840
1770
1744
1782
1865
1947
1997
1984
1920
1838
1786
1797
1861
1936
2000
2014
1977
1901
1833
1816
1861
1943
2019
2061
2035
1972
1904
1870
1898
1969
2041
2094
2082
2002
1915
1851
1856
1905
1982
2037
2035
1965
1867
1787
1775
1830
1919
1999
2032
1999
1913
1827
1790
1818
1903
1991
2055
2047
1981
1898
1839
1841
1897
1971
2034
2057
2000
1905
1825
1795
1840
1925
2002
2023
1972
1871
1769
1728
1775
1895
2035
2171
2256
2295
2325
2399
2541
2746
2955
3142
3244
3253
3183
3050
2918
2815
2718
2582
2385
2160
1932
1754
1663
1667
1735
1811
1871
1883
1841
1754
1712
1719
1796
1886
1955
1968
1926
1852
1785
1766
1813
1897
1965
1983
1944
1879
1809
1785
1830
1922
2000
2047
2033
1970
1890
1840
1855
1923
2009
2078
2087
2030
1938
1867
1854
1909
2001
2096
2142
2113
2026
1945
1920
1963
2041
2127
2182
2183
2130
2068
2011
2027
2099
2199
2288
2320
2273
2181
2107
2090
2130
2224
2302
2334
2302
2219
2131
2077
2086
2145
2213
2250
2223
2134
2031
1966
1956
2000
2074
2123
2129
2081
1994
1923
1901
1936
2000
2068
2093
2043
1961
1872
1841
1872
1951
2022
2069
2065
1998
1911
1859
1879
1949
2029
2099
2122
2077
1986
1919
1906
1954
2032
2112
2141
2106
2029
1953
1907
1922
1995
2078
2128
2117
2041
1950
1896
1902
1965
2057
2128
2139
2079
1983
1904
1888
1930
2000
2077
2114
2082
1994
1907
1871
1891
1967
2043
2086
2070
2001
1921
1863
1872
1939
2034
2112
2128
2081
1989
1919
1904
1958
2039
2109
2128
2103
2017
1927
1874
1886
1961
2034
2082
2058
1971
1878
1809
1806
1860
1942
2003
2021
1967
1885
1813
1819
1882
1973
2047
2078
2041
1961
1871
1836
1867
1951
2030
2081
2064
1987
1899
1841
1856
1918
1985
2039
2035
1976
1889
1825
1840
1931
2085
2246
2378
2448
2480
2515
2593
2714
2868
3018
3123
3119
2990
2801
2608
2448
2333
2242
2160
2042
1895
1754
1661
1641
1701
1802
1891
1933
1904
1835
1755
1718
1745
1829
1913
1963
1952
1892
1805
1743
1756
1827
1910
1973
1979
1930
1840
1769
1750
1804
1883
1971
2005
1975
1890
1808
1786
1827
1905
1983
2023
2009
1946
1871
1811
1815
1882
1968
2035
2059
2003
1920
1858
1858
1923
2023
2112
2141
2111
2028
1939
1905
1947
2035
2126
2177
2175
2110
2023
1957
1959
2026
2112
2176
2186
2127
2029
1946
1917
1957
2011
2065
2094
2059
1972
1883
1838
1856
1920
1989
2032
2010
1927
1809
1742
1748
1827
1918
1977
1983
1933
1853
1770
1737
1773
1841
1904
1931
1894
1813
1741
1725
1773
1854
1927
1963
1949
1879
1801
1744
1759
1825
1910
1974
1981
1927
1847
1779
1767
1825
1913
1985
2011
1967
1874
1791
1758
1799
1881
1965
2006
1995
1922
1833
1774
1774
1823
1895
1955
1970
1933
1859
1792
1786
1840
1926
1991
2014
1980
1910
1840
1809
1860
1943
2029
2078
2047
1962
1863
1799
1809
1878
1946
1987
1969
1890
1789
1722
1719
1781
1874
1957
1989
1946
1866
1785
1751
1789
1867
1942
1989
1978
1904
1810
1753
1762
1825
1903
1953
1949
1889
1802
1734
1726
1777
1861
1936
1959
1904
1793
1691
1650
1701
1812
1936
2032
2082
2087
2086
2128
2245
2427
2621
2784
2869
2875
2818
2757
2701
2661
2624
2544
2397
2186
1941
1746
1648
1641
1694
1759
1806
1805
1744
1666
1615
1633
1712
1808
1871
1877
1817
1721
1649
1648
1710
1792
1856
1871
1825
1743
1661
1623
1663
1750
1842
1904
1899
1828
1744
1689
1703
1777
1866
1936
1952
1901
1814
1745
1741
1793
1873
1951
1975
1943
1871
1805
1781
1835
1916
1994
2043
2031
1968
1891
1840
1851
1930
2031
2101
2114
2087
2004
1953
1951
2005
2096
2158
2175
2131
2042
1946
1903
1921
1985
2064
2103
2079
1983
1889
1833
1841
1905
1967
2014
2013
1950
1857
1776
1748
1797
1872
1936
1955
1906
1815
1733
1706
1740
1826
1904
1947
1935
1862
1779
1726
1731
1801
1879
1947
1946
1884
1791
1721
1716
1779
1869
1943
1975
1945
1866
1776
1719
1741
1818
1910
1963
1947
1875
1795
1742
1744
1806
1890
1952
1961
1905
1822
1751
1747
1807
1890
1957
1980
1951
1873
1794
1767
1791
1866
1941
1984
1968
1902
1806
1749
1781
1870
1971
2064
2071
2015
1924
1840
1809
1850
1925
1989
2003
1965
1874
1789
1745
1773
1835
1904
1942
1939
1885
1807
1749
1765
1839
1915
1970
1973
1920
1832
1758
1744
1806
1893
1959
1978
1941
1858
1783
1759
1799
1882
1966
2013
1995
1923
1839
1775
1764
1811
1886
1951
1983
1968
1950
1968
2062
2224
2431
2629
2773
2847
2863
2855
2880
2961
3039
3037
2962
2800
2540
2250
2007
1862
1815
1821
1837
1807
1735
1655
1593
1594
1651
1746
1832
1876
1859
1795
1719
1683
1715
1789
1861
1909
1896
1819
1734
1682
1702
1774
1854
1911
1904
1842
1763
1695
1691
1749
1838
1911
1937
1902
1823
1748
1722
1757
1830
1910
1967
1957
1904
1842
1807
1840
1921
2011
2086
2108
2059
1979
1921
1922
1977
2061
2139
2175
2154
2085
2014
1998
2043
2139
2224
2274
2258
2193
2106
2035
2042
2107
2175
2231
2224
2155
2053
1968
1930
1954
1999
2035
2053
2002
1923
1840
1808
1824
1890
1955
1990
1966
1881
1782
1744
1762
1823
1903
1963
1973
1925
1838
1761
1746
1798
1881
1955
1993
1958
1878
1803
1773
1805
1874
1951
1993
1982
1911
1833
1781
1798
1867
1941
1994
1994
1936
1845
1765
1754
1808
1893
1968
1984
1937
1847
1762
1734
1770
1856
1948
2000
1986
1907
1813
1755
1767
1841
1926
1994
2001
1959
1872
1803
1793
1840
1922
1994
2028
1999
1927
1860
1840
1887
1971
2054
2098
2080
1999
1906
1842
1842
1901
1971
2010
1991
1919
1824
1750
1747
1803
1879
1950
1963
1917
1835
1769
1755
1802
1881
1963
2002
1998
1919
1824
1759
1762
1815
1891
1956
1967
1905
1825
1759
1744
1794
1867
1929
1950
1903
1802
1707
1662
1687
1781
1898
2000
2062
2075
2096
2161
2311
2515
2748
2949
3091
3152
3152
3142
3138
3118
3061
2954
2759
2470
2138
1855
1671
1611
1633
1694
1734
1726
1670
1608
1579
1606
1687
1781
1853
1861
1807
1723
1671
1676
1729
1808
1873
1895
1849
1770
1694
1674
1726
1813
1897
1927
1904
1835
1751
1711
1735
1813
1907
1979
1984
1936
1862
1799
1798
1863
1954
2033
2078
2045
1968
1901
1888
1943
2041
2141
2191
2183
2123
2047
2000
2019
2099
2205
2295
2332
2291
2224
2174
2177
2242
2320
2414
2432
2387
2298
2202
2157
2173
2234
2293
2325
2295
2207
2112
2033
2031
2082
2135
2173
2157
2084
1984
1917
1889
1927
2000
2064
2089
2035
1943
1860
1823
1856
1931
2014
2066
2047
1969
1882
1837
1854
1923
2003
2066
2068
2004
1919
1859
1863
1925
2007
2083
2106
2064
1968
1885
1850
1885
1963
2032
2077
2047
1975
1889
1823
1822
1887
1971
2034
2047
1990
1905
1834
1821
1867
1938
2002
2025
1982
1894
1809
1777
1811
1891
1969
2017
2014
1946
1863
1808
1818
1872
1942
1998
1991
1930
1843
1775
1773
1840
1941
2026
2047
2043
1973
1904
1881
1937
2032
2119
2160
2134
2055
1959
1895
1904
1970
2035
2082
2069
1985
1889
1832
1831
1889
1974
2041
2064
2015
1917
1840
1806
1840
1915
1994
2034
2011
1933
1842
1794
1815
1894
1983
2044
2043
1981
1881
1805
1801
1857
1940
2006
2022
1970
1870
1760
1694
1709
1783
1879
1973
2030
2043
2081
2174
2343
2586
2859
3127
3329
3447
3502
3533
3583
3658
3648
3519
3280
2939
2544
2191
1923
1782
1744
1747
1756
1731
1663
1584
1527
1553
1641
1738
1799
1807
1747
1663
1600
1601
1667
1757
1834
1861
1826
1744
1663
1629
1661
1748
1837
1890
1875
1799
1709
1648
1659
1733
1829
1904
1925
1877
1804
1735
1728
1794
1889
1970
2005
1983
1914
1846
1840
1899
1990
2078
2129
2135
2083
2002
1958
1983
2077
2176
2250
2259
2219
2139
2087
2096
2149
2235
2305
2331
2299
2222
2132
2096
2123
2189
2253
2289
2271
2190
2087
2007
1999
2043
2108
2148
2131
2043
1929
1851
1840
1877
1946
2007
2027
1985
1913
1835
1804
1837
1906
1979
2004
1982
1904
1811
1757
1776
1845
1931
1984
1985
1931
1840
1770
1767
1831
1904
1968
1997
1968
1891
1808
1772
1793
1873
1959
2017
2006
1936
1847
1794
1807
1877
1955
2013
2010
1942
1857
1787
1775
1825
1907
1975
2001
1967
1887
1811
1786
1818
1895
1968
2005
1985
1915
1838
1784
1793
1856
1934
1985
1989
1936
1855
1786
1774
1824
1903
1973
2011
1983
1907
1840
1819
1861
1947
2039
2098
2093
2020
1937
1892
1904
1967
2037
2091
2079
2001
1905
1833
1814
1861
1927
1995
2011
1968
1878
1781
1757
1794
1877
1955
1992
1968
1890
1802
1747
1761
1832
1920
1986
1995
1935
1854
1789
1775
1817
1901
1973
2002
1975
1904
1825
1781
1794
1855
1919
1941
1905
1827
1759
1744
1821
1975
2173
2357
2496
2579
2638
2720
2845
3021
3215
3371
3437
3343
3135
2880
2651
2454
2291
2158
2019
1879
1729
1616
1552
1568
1650
1747
1815
1830
1776
1690
1616
1612
1676
1765
1836
1858
1819
1740
1661
1645
1696
1791
1882
1936
1934
1872
1802
1751
1759
1815
1894
1946
1940
1876
1792
1727
1725
1792
1891
1973
1989
1950
1866
1792
1776
1831
1929
2015
2064
2047
1985
1904
1850
1859
1936
2034
2122
2151
2118
2047
1991
2003
2087
2186
2271
2307
2275
2189
2098
2059
2085
2150
2217
2251
2219
2130
2027
1963
1968
2035
2112
2155
2134
2062
1959
1875
1859
1903
1970
2029
2035
1985
1898
1809
1775
1797
1859
1924
1959
1934
1861
1779
1741
1776
1858
1942
1986
1980
1915
1823
1751
1745
1808
1903
1975
1998
1949
1869
1789
1760
1804
1889
1966
2000
1983
1917
1837
1797
1822
1890
1968
2011
2001
1941
1855
1791
1786
1843
1924
1990
2010
1971
1887
1806
1776
1807
1873
1942
1983
1970
1901
1806
1739
1756
1839
1931
2001
2003
1951
1859
1794
1794
1852
1931
1994
2019
1982
1898
1815
1792
1840
1927
2010
2064
2046
1981
1914
1872
1891
1951
2034
2096
2090
2022
1936
1856
1839
1884
1952
2001
2017
1968
1881
1806
1778
1820
1895
1970
2019
1998
1921
1833
1777
1793
1863
1952
2019
2023
1975
1903
1837
1826
1878
1967
2032
2060
2014
1921
1840
1803
1833
1904
1975
2007
1984
1894
1793
1734
1759
1854
1969
2103
2187
2226
2253
2305
2419
2602
2807
2991
3105
3133
3088
2963
2838
2750
2672
2555
2393
2186
1959
1770
1650
1626
1681
1773
1845
1857
1809
1730
1676
1680
1746
1836
1903
1919
1886
1801
1721
1690
1732
1823
1907
1958
1943
1867
1778
1734
1747
1823
1910
1968
1971
1910
1825
1767
1765
1819
1899
1968
1998
1974
1894
1822
1786
1818
1895
1973
2030
2027
1974
1915
1881
1905
1981
2070
2135
2149
2110
2027
1966
1958
2010
2106
2189
2223
2193
2112
2032
2000
2042
2125
2192
2235
2212
2130
2027
1968
1975
2032
2111
2171
2169
2105
1998
1920
1899
1945
2023
2082
2087
2032
1935
1851
1821
1852
1922
1997
2031
2003
1929
1854
1804
1822
1887
1967
2020
2012
1941
1853
1786
1789
1851
1946
2029
2047
1997
1904
1827
1808
1855
1926
1994
2025
1997
1921
1836
1787
1810
1889
1970
2026
2026
1962
1871
1803
1805
1865
1949
2021
2061
2015
1936
1858
1837
1872
1951
2023
2068
2042
1971
1892
1837
1842
1901
1970
2031
2034
1984
1911
1845
1840
1898
1984
2062
2090
2058
1982
1914
1891
1932
2007
2090
2128
2112
2031
1938
1885
1902
1957
2018
2055
2039
1970
1882
1823
1815
1874
1949
2015
2038
2000
1917
1853
1827
1871
1957
2038
2084
2066
1995
1915
1871
1891
1968
2045
2096
2093
2013
1920
1847
1839
1894
1973
2032
2042
1991
1901
1814
1773
1813
1923
2043
2145
2205
2220
2241
2294
2416
2594
2776
2928
3003
2990
2922
2819
2736
2673
2614
2512
2359
2164
1950
1785
1699
1707
1776
1856
1906
1897
1839
1769
1728
1751
1830
1914
1969
1971
1919
1840
1782
1778
1835
1924
1995
2034
1999
1909
1831
1808
1851
1936
2018
2065
2029
1939
1855
1814
1839
1921
2012
2079
2081
2013
1926
1859
1859
1925
2015
2093
2121
2092
2013
1938
1922
1975
2080
2171
2220
2195
2119
2037
1994
2011
2087
2178
2240
2247
2187
2096
2017
2015
2079
2163
2237
2254
2212
2127
2039
2011
2046
2135
2218
2249
2211
2124
2032
1975
1983
2043
2122
2170
2159
2082
1975
1903
1895
1950
2031
2099
2113
2077
1984
1907
1877
1919
1997
2079
2123
2103
2023
1931
1883
1905
1979
2065
2115
2105
2032
1950
1887
1889
1950
2034
2110
2132
2090
1995
1909
1879
1917
1986
2062
2092
2071
2000
1922
1883
1904
1982
2066
2116
2112
2041
1963
1895
1889
1936
2007
2077
2096
2054
1970
1901
1872
1914
1991
2067
2102
2073
1996
1919
1878
1913
1988
2087
2157
2160
2096
2000
1925
1913
1968
2042
2102
2103
2055
1968
1891
1856
1877
1951
2028
2065
2033
1955
1877
1838
1861
1923
2000
2054
2039
1979
1894
1837
1831
1886
1968
2032
2058
2009
1925
1844
1831
1871
1946
2011
2044
2015
1932
1840
1778
1781
1839
1904
1958
1969
1932
1890
1883
1957
2103
2279
2447
2586
2658
2672
2683
2718
2804
2920
2985
2962
2833
2623
2366
2133
1975
1905
1883
1865
1818
1731
1642
1585
1605
1681
1781
1856
1887
1854
1770
1693
1665
1712
1805
1882
1921
1904
1827
1743
1698
1718
1782
1856
1909
1906
1840
1750
1686
1696
1770
1867
1936
1958
1918
1833
1754
1719
1756
1839
1911
1959
1949
1887
1821
1787
1817
1889
1969
2030
2035
1983
1903
1842
1850
1925
2022
2107
2138
2107
2030
1958
1942
1990
2082
2160
2194
2167
2079
1985
1927
1939
2011
2096
2147
2135
2067
1957
1872
1856
1903
1974
2031
2033
1979
1888
1803
1769
1798
1865
1931
1968
1941
1872
1791
1741
1751
1815
1886
1941
1935
1871
1776
1699
1695
1760
1846
1920
1949
1904
1819
1749
1730
1781
1871
1949
1984
1957
1885
1808
1763
1786
1860
1935
1984
1972
1902
1806
1741
1745
1809
1887
1958
1981
1936
1853
1773
1741
1779
1856
1926
1966
1936
1863
1779
1732
1755
1830
1907
1957
1968
1918
1840
1775
1776
1840
1920
1984
1991
1943
1856
1787
1770
1820
1909
2001
2058
2035
1968
1885
1834
1840
1893
1959
2000
1991
1927
1840
1769
1749
1797
1867
1923
1935
1887
1802
1725
1706
1755
1841
1915
1941
1917
1840
1759
1718
1731
1799
1875
1931
1931
1871
1783
1722
1715
1785
1871
1941
1966
1926
1842
1765
1734
1761
1826
1879
1898
1867
1804
1755
1759
1856
2014
2194
2354
2469
2525
2555
2595
2683
2814
2950
3056
3054
2928
2710
2470
2258
2097
1993
1929
1872
1789
1680
1594
1535
1573
1650
1749
1818
1823
1762
1677
1612
1617
1681
1774
1842
1861
1820
1742
1667
1648
1691
1769
1839
1878
1858
1789
1711
1662
1669
1733
1809
1873
1899
1863
1793
1737
1750
1823
1908
1967
1973
1925
1850
1788
1775
1815
1898
1980
2027
2006
1938
1871
1838
1865
1941
2032
2103
2105
2047
1983
1937
1957
2034
2128
2204
2226
2187
2112
2032
2000
2037
2128
2202
2236
2203
2119
2031
1971
1981
2034
2101
2142
2123
2037
1935
1859
1854
1897
1959
2005
2006
1949
1858
1782
1758
1800
1877
1946
1971
1945
1866
1785
1743
1756
1827
1906
1965
1952
1879
1791
1724
1719
1783
1875
1949
1974
1936
1853
1776
1753
1807
1894
1968
2001
1975
1889
1795
1742
1755
1827
1915
1968
1959
1898
1815
1767
1761
1809
1887
1946
1957
1909
1826
1750
1727
1776
1859
1936
1973
1959
1886
1812
1775
1790
1856
1925
1978
1969
1904
1814
1759
1755
1815
1897
1964
1970
1919
1825
1745
1719
1771
1867
1969
2013
2001
1946
1878
1853
1881
1953
2031
2077
2064
1987
1885
1807
1795
1847
1923
1989
2005
1951
1856
1776
1743
1776
1859
1943
1984
1961
1869
1779
1744
1771
1846
1936
1987
1984
1911
1819
1753
1749
1809
1903
1980
2011
1974
1887
1811
1787
1826
1895
1963
1989
1950
1856
1751
1685
1703
1781
1896
2010
2085
2112
2141
2209
2345
2544
2768
2977
3136
3201
3191
3155
3113
3059
2992
2882
2703
2438
2147
1890
1725
1664
1683
1743
1792
1798
1751
1682
1639
1654
1726
1814
1886
1901
1856
1765
1680
1660
1711
1801
1881
1919
1897
1815
1728
1684
1713
1792
1867
1906
1909
1854
1778
1728
1728
1792
1879
1947
1965
1920
1843
1782
1773
1835
1929
2011
2060
2032
1959
1886
1854
1890
1983
2075
2130
2139
2096
2020
1968
1967
2027
2117
2194
2224
2208
2147
2087
2068
2115
2209
2294
2334
2298
2207
2116
2080
2094
2151
2210
2250
2230
2158
2063
1983
1978
2016
2081
2119
2125
2064
1961
1877
1852
1885
1947
2002
2026
1983
1897
1808
1749
1762
1830
1913
1974
1968
1895
1805
1744
1744
1803
1884
1949
1975
1947
1874
1809
1786
1823
1898
1982
2030
2015
1942
1853
1801
1808
1875
1952
2010
2010
1942
1851
1776
1771
1819
1904
1983
2015
1979
1904
1833
1802
1838
1905
1971
2003
1979
1902
1811
1757
1777
1847
1920
1971
1971
1905
1814
1747
1746
1814
1917
1999
2021
1979
1891
1809
1779
1814
1901
1982
2015
1979
1886
1794
1745
1775
1853
1935
1985
1975
1905
1827
1775
1769
1847
1936
2011
2039
2007
1936
1863
1843
1899
1995
2090
2135
2125
2060
1981
1933
1942
1990
2077
2119
2119
2045
1937
1856
1845
1898
1968
2029
2046
2011
1937
1856
1826
1856
1930
2005
2045
2028
1953
1867
1818
1840
1920
2007
2066
2064
1997
1911
1846
1846
1904
1984
2059
2077
2029
1941
1859
1820
1845
1904
1953
1962
1909
1822
1761
1774
1868
2038
2243
2432
2585
2695
2798
2910
3071
3291
3524
3737
3831
3712
3442
3155
2881
2642
2432
2259
2091
1936
1776
1650
1584
1601
1680
1776
1839
1843
1793
1717
1667
1680
1753
1845
1917
1935
1887
1803
1723
1698
1742
1823
1904
1951
1923
1845
1758
1705
1735
1805
1890
1941
1939
1886
1808
1750
1756
1821
1907
1984
2014
1983
1909
1842
1825
1872
1957
2038
2090
2065
1989
1923
1901
1934
2016
2116
2192
2208
2163
2096
2040
2061
2133
2228
2301
2320
2285
2214
2150
2131
2176
2253
2320
2358
2335
2256
2173
2114
2125
2179
2252
2291
2271
2190
2090
1996
1970
2005
2066
2112
2112
2058
1959
1870
1829
1861
1936
2003
2037
2006
1929
1839
1783
1811
1878
1949
1997
1972
1904
1819
1763
1776
1840
1923
1994
2010
1968
1890
1828
1798
1838
1907
1985
2011
1972
1876
1777
1727
1751
1831
1922
1984
1989
1929
1839
1770
1757
1811
1895
1968
1997
1949
1862
1780
1750
1783
1857
1931
1968
1948
1872
1786
1729
1749
1827
1908
1968
1966
1903
1813
1744
1744
1805
1892
1958
1971
1920
1833
1753
1739
1776
1850
1919
1951
1934
1857
1783
1744
1769
1843
1923
1968
1965
1893
1799
1729
1725
1789
1873
1948
1975
1939
1865
1796
1787
1856
1967
2062
2101
2067
1979
1886
1835
1846
1911
1979
2018
2000
1923
1814
1727
1717
1777
1859
1927
1943
1899
1810
1731
1708
1751
1831
1926
1971
1950
1879
1801
1757
1787
1862
1939
1991
1974
1902
1808
1745
1750
1815
1904
1968
1986
1931
1836
1749
1716
1739
1796
1859
1889
1859
1781
1726
1737
1843
2022
2239
2431
2586
2675
2734
2800
2917
3071
3242
3369
3364
3205
2954
2687
2448
2255
2116
2011
1920
1814
1682
1577
1522
1562
1648
1743
1811
1823
1769
1683
1622
1633
1697
1778
1851
1871
1823
1745
1675
1648
1686
1765
1840
1884
1869
1798
1725
1679
1712
1792
1886
1946
1945
1886
1805
1743
1741
1805
1890
1957
1981
1941
1858
1778
1758
1805
1888
1969
2016
2004
1943
1879
1847
1872
1952
2045
2119
2138
2096
2027
1986
2009
2086
2176
2255
2273
2225
2141
2061
2031
2076
2160
2235
2271
2233
2139
2034
1975
1984
2045
2107
2148
2133
2059
1963
1885
1873
1923
1993
2046
2042
1983
1889
1807
1777
1808
1886
1963
1997
1967
1875
1778
1730
1751
1821
1902
1953
1947
1877
1794
1738
1735
1799
1889
1968
1985
1938
1851
1776
1744
1791
1884
1973
2021
1998
1910
1818
1766
1793
1877
1961
2006
1991
1927
1856
1795
1804
1868
1941
2001
2015
1966
1874
1801
1767
1803
1884
1967
2006
1984
1911
1840
1795
1817
1879
1951
1997
1988
1918
1827
1770
1779
1849
1938
2006
2020
1970
1872
1783
1751
1793
1874
1954
1993
1981
1907
1825
1781
1803
1871
1953
2014
2013
1955
1886
1839
1858
1925
2006
2070
2077
2011
1924
1857
1841
1878
1936
1985
1999
1957
1873
1787
1741
1766
1842
1932
1989
1989
1943
1867
1803
1803
1863
1943
2009
2016
1964
1875
1799
1777
1825
1911
1987
2021
1991
1911
1823
1771
1790
1851
1909
1957
1942
1863
1751
1666
1658
1729
1824
1933
2007
2042
2047
2082
2178
2331
2538
2742
2896
2963
2954
2913
2875
2832
2797
2736
2625
2425
2167
1907
1712
1616
1616
1671
1730
1758
1730
1680
1634
1628
1683
1767
1856
1905
1887
1805
1711
1654
1664
1731
1814
1873
1878
1814
1727
1664
1670
1741
1830
1903
1922
1885
1803
1732
1711
1748
1828
1895
1931
1919
1851
1774
1726
1750
1831
1915
1984
1999
1946
1869
1815
1823
1892
1980
2054
2075
2026
1947
1874
1860
1906
2003
2097
2156
2144
2087
2016
1977
1999
2077
2159
2224
2227
2171
2088
2018
2007
2054
2123
2177
2177
2117
2015
1923
1889
1918
1984
2063
2096
2061
1954
1856
1795
1801
1861
1930
1978
1975
1904
1808
1737
1731
1792
1866
1911
1916
1872
1793
1727
1712
1762
1849
1923
1959
1929
1840
1744
1699
1727
1805
1889
1949
1946
1883
1796
1738
1744
1810
1893
1949
1956
1906
1823
1751
1739
1792
1877
1953
1984
1959
1878
1782
1727
1741
1809
1887
1943
1941
1869
1773
1710
1715
1790
1878
1955
1973
1921
1826
1744
1717
1761
1844
1926
1973
1961
1879
1799
1761
1782
1850
1935
1993
2000
1950
1871
1809
1807
1866
1943
2006
2032
1991
1904
1829
1803
1827
1881
1936
1968
1937
1863
1782
1742
1761
1829
1917
1978
1981
1919
1830
1763
1771
1833
1911
1968
1989
1943
1866
1806
1787
1825
1903
1971
2000
1971
1894
1811
1773
1788
1856
1934
1975
1962
1879
1782
1712
1719
1797
1915
2027
2107
2128
2128
2154
2237
2386
2557
2713
2822
2861
2823
2759
2672
2602
2541
2470
2350
2154
1915
1693
1535
1485
1511
1579
1645
1675
1649
1586
1527
1522
1573
1653
1732
1774
1761
1695
1616
1570
1590
1663
1748
1817
1810
1755
1672
1614
1616
1682
1763
1827
1840
1799
1714
1647
1635
1694
1786
1871
1914
1899
1819
1735
1691
1715
1800
1892
1955
1960
1904
1822
1766
1774
1837
1926
2001
2027
1994
1927
1872
1872
1927
2021
2112
2162
2146
2083
2003
1970
2000
2086
2164
2219
2210
2146
2064
2000
2001
2061
2127
2183
2190
2135
2045
1959
1931
1968
2044
2107
2119
2077
1984
1902
1855
1872
1943
2018
2079
2081
2018
1933
1866
1862
1925
2001
2064
2079
2019
1934
1856
1835
1875
1962
2038
2090
2063
1981
1901
1859
1889
1975
2069
2129
2123
2055
1963
1904
1905
1968
2054
2125
2138
2096
2007
1936
1918
1957
2038
2122
2152
2122
2033
1947
1907
1936
2011
2100
2163
2163
2097
1991
1915
1900
1946
2022
2097
2112
2071
1993
1932
1915
1965
2059
2134
2164
2141
2069
1988
1963
2000
2094
2172
2225
2224
2169
2095
2032
2031
2083
2155
2216
2219
2160
2061
1974
1952
1989
2064
2128
2150
2124
2047
1968
1926
1951
2019
2099
2150
2142
2071
1983
1925
1933
1999
2086
2156
2176
2141
2063
1984
1953
1987
2072
2167
2214
2195
2113
2002
1935
1928
1982
2041
2098
2112
2087
2057
2063
2154
2317
2506
2697
2832
2900
2923
2935
2977
3085
3200
3273
3226
3063
2815
2541
2301
2151
2085
2065
2047
2001
1923
1840
1782
1795
1869
1959
2014
2042
1993
1905
1831
1819
1872
1959
2038
2070
2035
1969
1897
1862
1885
1963
2045
2101
2100
2032
1945
1891
1898
1967
2054
2121
2141
2098
2016
1947
1927
1971
2064
2133
2164
2141
2067
1982
1938
1968
2047
2135
2195
2203
2160
2096
2046
2064
2133
2228
2305
2341
2307
2239
2173
2160
2203
2288
2355
2388
2363
2285
2204
2159
2167
2231
2296
2337
2320
2255
2165
2086
2073
2123
2198
2260
2271
2217
2115
2026
1978
2001
2078
2143
2174
2146
2064
1969
1911
1918
1984
2071
2128
2128
2064
1964
1894
1891
1947
2022
2093
2112
2071
1991
1918
1891
1935
2012
2097
2138
2126
2047
1961
1919
1943
2018
2102
2154
2151
2093
1996
1931
1923
1982
2055
2109
2115
2078
1994
1925
1901
1936
2000
2069
2099
2078
2005
1934
1893
1917
1985
2067
2115
2117
2047
1962
1898
1890
1958
2032
2095
2107
2064
1974
1902
1875
1919
1999
2083
2128
2111
2029
1952
1919
1950
2033
2128
2204
2206
2137
2039
1972
1968
2021
2096
2158
2159
2098
2004
1918
1876
1909
1986
2065
2107
2087
2007
1921
1871
1885
1957
2033
2083
2074
2002
1925
1868
1869
1924
1999
2071
2095
2059
1968
1887
1869
1919
1999
2079
2115
2087
2006
1921
1865
1866
1923
1981
2026
2026
1977
1931
1930
2015
2183
2385
2585
2745
2842
2891
2939
3024
3171
3335
3463
3466
3319
3066
2779
2510
2303
2164
2066
1986
1911
1808
1697
1626
1630
1701
1791
1872
1904
1881
1808
1747
1739
1789
1866
1917
1936
1903
1822
1743
1701
1737
1825
1907
1967
1964
1899
1813
1757
1770
1833
1921
1991
2007
1967
1878
1808
1795
1842
1921
2001
2043
2025
1947
1870
1819
1842
1930
2030
2099
2091
2022
1946
1899
1905
1978
2075
2154
2185
2160
2087
2031
2026
2090
2186
2267
2306
2282
2209
2129
2086
2109
2178
2251
2288
2260
2187
2096
2019
2012
2061
2123
2173
2161
2091
1974
1876
1840
1866
1936
2015
2059
2021
1931
1829
1762
1766
1815
1873
1920
1909
1847
1759
1694
1693
1757
1847
1915
1930
1874
1788
1714
1702
1755
1841
1911
1936
1904
1827
1754
1725
1751
1822
1893
1946
1950
1890
1800
1735
1728
1780
1859
1935
1954
1904
1808
1726
1694
1735
1815
1897
1937
1909
1827
1737
1677
1685
1747
1838
1898
1892
1824
1738
1673
1669
1728
1814
1886
1897
1843
1748
1670
1646
1688
1777
1856
1887
1854
1775
1702
1680
1712
1783
1856
1905
1903
1840
1763
1717
1734
1808
1899
1981
2007
1975
1903
1818
1789
1811
1892
1967
1990
1951
1866
1767
1707
1717
1780
1852
1889
1879
1819
1742
1678
1665
1712
1787
1847
1872
1845
1775
1707
1681
1725
1798
1867
1906
1895
1828
1757
1717
1743
1810
1885
1936
1930
1853
1742
1655
1638
1667
1723
1776
1794
1765
1728
1719
1803
1968
2192
2436
2659
2829
2928
3011
3121
3264
3437
3583
3616
3460
3185
2842
2487
2192
1984
1862
1795
1735
1648
1533
1433
1407
1456
1554
1643
1679
1655
1581
1489
1455
1489
1573
1659
1713
1723
1679
1602
1553
1563
1620
1711
1781
1808
1774
1706
1636
1609
1651
1729
1813
1862
1851
1786
1721
1692
1716
1795
1875
1930
1930
1875
1794
1739
1745
1813
1906
1984
2004
1965
1881
1821
1809
1875
1983
2078
2126
2112
2035
1966
1930
1967
2064
2165
2226
2230
2176
2085
2007
2000
2055
2129
2193
2210
2156
2064
1969
1936
1968
2037
2100
2128
2089
1986
1886
1829
1828
1881
1950
1999
1991
1921
1824
1750
1744
1802
1874
1935
1946
1903
1817
1744
1717
1761
1855
1936
1977
1938
1857
1770
1714
1744
1831
1915
1966
1964
1901
1818
1760
1759
1807
1877
1936
1952
1915
1825
1758
1741
1781
1847
1907
1936
1913
1840
1763
1716
1733
1796
1872
1936
1933
1856
1771
1713
1716
1778
1856
1919
1933
1874
1789
1712
1680
1718
1795
1872
1917
1901
1827
1747
1705
1734
1815
1915
1955
1973
1915
1827
1774
1763
1817
1894
1958
1967
1916
1822
1735
1710
1754
1847
1936
1984
1965
1898
1823
1792
1819
1895
1982
2046
2068
2023
1955
1901
1899
1949
2026
2092
2105
2047
1949
1853
1801
1822
1887
1955
1995
1968
1901
1818
1781
1807
1871
1937
1993
1990
1930
1851
1793
1797
1866
1950
2000
2007
1957
1872
1798
1776
1815
1902
1982
2032
2013
1936
1856
1814
1840
1904
1962
1995
1974
1904
1815
1766
1799
1911
2074
2234
2379
2480
2547
2619
2731
2896
3088
3277
3397
3391
3248
3024
2818
2642
2485
2327
2176
2014
1840
1687
1590
1572
1630
1727
1812
1857
1834
1763
1690
1671
1719
1802
1887
1929
1904
1819
1741
1695
1720
1799
1890
1953
1961
1904
1823
1759
1750
1805
1883
1955
1983
1947
1872
1802
1779
1825
1909
1997
2043
2025
1947
1867
1830
1857
1927
2015
2081
2085
2025
1945
1882
1886
1955
2060
2141
2171
2146
2088
2026
2013
2069
2163
2255
2305
2303
2238
2167
2121
2137
2198
2271
2316
2309
2240
2149
2080
2066
2106
2173
2224
2231
2175
2087
1999
1963
1987
2063
2113
2128
2085
1984
1881
1818
1815
1878
1949
1991
1983
1917
1836
1771
1773
1840
1930
1995
2001
1955
1867
1790
1753
1787
1863
1936
1974
1954
1879
1806
1767
1785
1856
1936
1979
1962
1894
1808
1747
1747
1814
1903
1975
1995
1955
1873
1795
1767
1801
1873
1951
1990
1968
1895
1808
1759
1782
1856
1935
1985
1978
1917
1835
1766
1776
1835
1907
1966
1969
1919
1829
1750
1712
1744
1833
1917
1953
1940
1874
1786
1737
1754
1822
1904
1967
1977
1923
1840
1772
1763
1808
1879
1939
1954
1913
1837
1776
1772
1826
1919
2002
2054
2029
1949
1863
1819
1819
1875
1951
1995
1979
1916
1826
1749
1741
1785
1858
1929
1957
1915
1817
1731
1705
1746
1830
1913
1949
1926
1853
1776
1734
1754
1818
1893
1945
1951
1914
1843
1781
1776
1821
1888
1941
1962
1920
1837
1751
1712
1731
1789
1850
1883
1882
1854
1834
1861
1979
2174
2382
2559
2683
2737
2750
2758
2815
2906
2971
2960
2851
2658
2395
2122
1903
1778
1750
1758
1759
1727
1650
1583
1535
1584
1670
1759
1808
1806
1744
1663
1601
1599
1663
1744
1819
1843
1802
1718
1637
1613
1662
1750
1839
1885
1865
1787
1707
1665
1691
1766
1843
1900
1901
1849
1761
1699
1702
1757
1841
1909
1927
1884
1808
1746
1744
1789
1871
1957
2010
1993
1926
1861
1834
1856
1940
2032
2104
2114
2065
1979
1919
1920
1986
2078
2155
2171
2128
2045
1965
1934
1964
2029
2096
2122
2096
2004
1909
1846
1846
1898
1954
1999
1981
1909
1814
1741
1724
1775
1854
1920
1937
1889
1799
1723
1686
1712
1786
1859
1904
1887
1823
1744
1693
1710
1776
1850
1902
1898
1838
1755
1699
1704
1762
1847
1905
1913
1871
1786
1712
1685
1725
1802
1878
1936
1924
1853
1769
1721
1739
1806
1885
1933
1920
1849
1771
1710
1708
1762
1840
1904
1925
1883
1810
1745
1728
1769
1840
1909
1941
1919
1845
1765
1739
1748
1820
1901
1951
1953
1888
1808
1731
1727
1781
1869
1936
1968
1930
1843
1758
1729
1778
1872
1969
2038
2035
1959
1861
1809
1826
1886
1961
2006
2000
1925
1828
1746
1733
1789
1867
1930
1943
1898
1805
1728
1707
1750
1835
1907
1947
1934
1868
1786
1739
1751
1823
1909
1971
1977
1923
1843
1782
1787
1846
1930
2003
2032
1989
1909
1824
1785
1801
1855
1915
1953
1933
1862
1802
1795
1867
2000
2164
2323
2439
2493
2515
2559
2651
2783
2928
3035
3053
2941
2743
2523
2331
2189
2091
2013
1949
1857
1739
1630
1570
1587
1676
1776
1852
1872
1823
1745
1686
1680
1728
1808
1885
1910
1876
1797
1727
1696
1740
1830
1909
1948
1927
1856
1775
1727
1742
1807
1886
1948
1947
1895
1813
1744
1734
1795
1886
1958
1981
1947
1870
1790
1761
1802
1884
1970
2022
2011
1942
1859
1818
1845
1919
2004
2075
2091
2042
1978
1929
1935
2003
2118
2197
2227
2193
2112
2019
1985
2022
2099
2173
2211
2187
2107
2002
1943
1949
2011
2089
2141
2145
2079
1983
1906
1888
1930
1993
2045
2063
2017
1936
1850
1808
1825
1895
1961
2000
1983
1909
1831
1782
1794
1857
1936
2000
2014
1967
1887
1814
1805
1867
1950
2023
2055
2015
1935
1855
1824
1858
1939
2018
2064
2054
1980
1894
1833
1836
1904
1985
2059
2058
1990
1899
1829
1813
1859
1931
1985
2030
1991
1906
1825
1794
1835
1917
1990
2025
2003
1934
1852
1808
1833
1903
1984
2043
2047
1995
1917
1851
1835
1884
1961
2033
2066
2042
1968
1898
1869
1911
1999
2082
2126
2103
2019
1930
1870
1870
1922
2005
2062
2047
1985
1904
1840
1822
1872
1951
2011
2031
1985
1904
1818
1795
1840
1919
1999
2062
2057
1987
1915
1860
1870
1932
2011
2066
2069
2009
1926
1857
1845
1903
1989
2064
2079
2021
1915
1813
1761
1787
1872
1967
2056
2101
2109
2109
2157
2278
2463
2671
2838
2949
2971
2943
2911
2919
2941
2935
2873
2735
2498
2222
1969
1814
1776
1809
1866
1902
1888
1822
1753
1713
1739
1815
1907
1974
1983
1931
1850
1776
1759
1805
1879
1949
1973
1930
1840
1748
1710
1744
1825
1907
1961
1953
1894
1820
1787
1814
1887
1968
2032
2039
1984
1903
1838
1830
1883
1965
2029
2063
2026
1945
1871
1845
1885
1968
2060
2122
2128
2075
2005
1974
2000
2074
2157
2222
2231
2186
2107
2036
2032
2089
2176
2255
2289
2251
2163
2079
2034
2066
2134
2213
2254
2230
2147
2047
1983
1985
2033
2107
2147
2132
2064
1973
1911
1904
1942
2011
2065
2081
2030
1936
1845
1808
1843
1918
1989
2030
2019
1955
1875
1829
1841
1911
1997
2066
2082
2022
1933
1858
1840
1882
1963
2032
2078
2037
1953
1877
1840
1862
1931
2000
2047
2030
1966
1879
1835
1849
1915
1986
2042
2039
1979
1903
1849
1843
1894
1969
2034
2061
2019
1942
1858
1828
1858
1936
2011
2047
2025
1946
1858
1802
1803
1871
1968
2031
2055
2011
1933
1861
1849
1898
1975
2055
2095
2071
2000
1926
1890
1925
2011
2098
2137
2119
2037
1949
1891
1899
1954
2029
2082
2070
1993
1913
1851
1843
1909
1974
2030
2043
2001
1919
1839
1805
1837
1904
1990
2037
2029
1958
1863
1810
1823
1890
1968
2029
2032
1978
1899
1831
1814
1863
1939
2002
2031
1982
1874
1776
1729
1775
1885
2015
2117
2195
2222
2243
2303
2427
2621
2817
2990
3099
3125
3091
3039
2978
2923
2862
2752
2559
2319
2062
1844
1725
1708
1758
1828
1874
1872
1815
1743
1690
1701
1771
1856
1911
1925
1872
1786
1712
1710
1762
1845
1923
1958
1936
1866
1793
1755
1778
1840
1899
1936
1927
1868
1794
1751
1772
1841
1930
2001
2023
1975
1895
1827
1815
1873
1966
2038
2074
2045
1978
1907
1885
1927
2004
2091
2139
2128
2066
1986
1940
1963
2047
2158
2234
2257
2221
2151
2089
2077
2127
2204
2278
2304
2272
2198
2123
2081
2103
2163
2229
2262
2231
2144
2043
1974
1967
2009
2075
2123
2123
2058
1959
1872
1844
1888
1956
2006
2029
1995
1906
1818
1779
1802
1870
1936
1971
1952
1891
1807
1750
1763
1840
1936
2006
2023
1975
1897
1824
1808
1846
1917
1981
1997
1955
1874
1795
1759
1786
1867
1948
2003
2000
1936
1856
1795
1799
1861
1941
1994
1990
1920
1817
1735
1728
1791
1881
1958
1983
1942
1858
1772
1726
1753
1830
1905
1942
1936
1873
1801
1745
1751
1823
1903
1955
1959
1904
1817
1744
1715
1757
1839
1925
1967
1943
1869
1791
1757
1792
1882
1973
2042
2057
2000
1930
1881
1892
1957
2030
2087
2086
2018
1915
1826
1799
1840
1908
1968
1979
1935
1842
1754
1711
1743
1826
1908
1963
1959
1897
1814
1759
1766
1830
1915
1985
1999
1946
1857
1787
1765
1818
1906
1985
2032
2001
1923
1840
1790
1795
1853
1909
1935
1918
1831
1739
1687
1738
1861
2027
2192
2329
2416
2486
2589
2737
2943
3173
3376
3504
3530
3429
3233
3024
2842
2672
2479
2273
2063
1851
1680
1574
1535
1595
1666
1733
1761
1730
1663
1602
1595
1648
1733
1808
1829
1793
1721
1648
1607
1622
1693
1776
1839
1840
1777
1706
1655
1670
1743
1822
1887
1903
1856
1778
1711
1698
1748
1835
1910
1943
1919
1854
1781
1749
1787
1856
1929
1981
1984
1933
1861
1830
1850
1920
2003
2079
2102
2069
2003
1954
1951
2018
2118
2203
2249
2233
2165
2095
2063
2099
2178
2256
2318
2318
2247
2157
2081
2074
2128
2193
2241
2239
2174
2079
1989
1955
1977
2035
2088
2090
2029
1935
1846
1805
1828
1889
1958
1999
1984
1919
1837
1781
1779
1842
1922
1984
1995
1954
1876
1806
1787
1836
1919
1999
2033
2005
1923
1835
1791
1810
1883
1959
2011
2017
1959
1879
1821
1814
1869
1941
2002
2016
1967
1882
1810
1793
1841
1926
2005
2039
2003
1918
1831
1789
1810
1883
1962
2004
2001
1934
1854
1796
1800
1867
1959
2025
2030
1966
1871
1790
1766
1815
1919
2007
2053
2027
1941
1861
1819
1845
1917
1990
2030
2012
1941
1854
1793
1802
1862
1943
2013
2034
1996
1925
1872
1874
1941
2041
2131
2173
2142
2063
1968
1913
1925
1995
2073
2106
2078
1989
1891
1823
1821
1873
1943
2000
2015
1967
1881
1803
1776
1818
1904
1989
2035
2011
1937
1856
1815
1850
1923
2000
2059
2064
2010
1926
1860
1859
1920
1998
2065
2077
2016
1926
1841
1801
1820
1875
1936
1974
1968
1923
1907
1951
2083
2276
2491
2691
2850
2949
3003
3069
3184
3349
3529
3638
3556
3328
3031
2721
2422
2195
2046
1952
1879
1801
1705
1621
1596
1630
1715
1804
1870
1881
1815
1732
1677
1687
1764
1855
1927
1941
1894
1810
1744
1728
1776
1856
1934
1961
