1965
2058
2143
2176
2134
2031
1921
1870
1882
1991
2085
2139
2145
2083
1989
1931
1937
2001
2090
2166
2191
2149
2071
1994
1974
2027
2121
2205
2253
2237
2165
2095
2066
2112
2211
2305
2353
2334
2246
2146
2081
2095
2173
2271
2343
2359
2303
2207
2126
2099
2148
2236
2305
2335
2301
2210
2117
2087
2122
2203
2273
2303
2271
2187
2096
2029
2025
2080
2143
2189
2171
2098
1998
1935
1945
2018
2121
2196
2229
2194
2107
2017
1983
2021
2108
2178
2218
2192
2112
2007
1954
1978
2067
2174
2258
2288
2242
2163
2099
2077
2113
2191
2266
2307
2291
2223
2143
2113
2160
2246
2332
2369
2351
2267
2170
2112
2130
2211
2297
2344
2333
2261
2160
2086
2085
2141
2238
2304
2301
2240
2163
2091
2045
2064
2141
2230
2279
2234
2133
2062
2021
2031
2097
2178
2239
2237
2174
2097
2045
2068
2124
2199
2269
2288
2230
2114
2000
1957
2002
2126
2261
2411
2503
2543
2559
2620
2705
2834
2985
3111
3157
3097
2926
2735
2605
2519
2454
2370
2267
2145
2009
1906
1856
1885
1975
2102
2186
2192
2128
2030
1966
1993
2085
2185
2254
2261
2201
2110
2015
1997
2064
2159
2234
2263
2224
2129
2041
2002
2047
2130
2191
2189
2146
2064
1975
1920
1939
2021
2114
2176
2182
2121
2028
1962
1967
2029
2142
2243
2275
2233
2128
2022
1974
2007
2096
2178
2239
2237
2162
2086
2041
2065
2135
2219
2279
2285
2222
2125
2038
2011
2059
2127
2185
2195
2151
2063
1978
1919
1917
1968
2032
2061
2030
1949
1853
1792
1808
1894
1997
2055
2033
1943
1840
1767
1776
1859
1967
2023
2002
1937
1849
1749
1713
1756
1846
1933
1971
1955
1889
1808
1751
1759
1827
1914
1969
1977
1927
1843
1776
1776
1835
1920
1993
2018
1983
1886
1783
1753
1785
1841
1917
1943
1920
1825
1712
1645
1649
1713
1793
1857
1872
1830
1751
1665
1646
1687
1776
1855
1883
1853
1766
1695
1680
1734
1841
1935
1966
1918
1815
1686
1603
1598
1642
1719
1790
1804
1754
1694
1709
1809
2000
2237
2459
2637
2722
2742
2737
2763
2827
2877
2873
2795
2627
2359
2067
1833
1691
1651
1690
1734
1744
1685
1617
1573
1561
1614
1703
1786
1831
1779
1690
1613
1582
1619
1711
1806
1868
1863
1795
1701
1648
1669
1751
1844
1904
1910
1839
1738
1661
1651
1713
1797
1874
1915
1887
1815
1755
1736
1763
1861
1951
1984
1950
1863
1770
1728
1759
1856
1972
2075
2101
2057
1968
1919
1919
1985
2070
2128
2154
2084
1965
1881
1845
1875
1967
2068
2130
2131
2069
1988
1951
1959
2000
2053
2074
2033
1951
1857
1772
1734
1774
1841
1899
1907
1857
1767
1678
1641
1671
1757
1843
1904
1897
1818
1734
1680
1699
1776
1874
1945
1954
1893
1810
1755
1755
1803
1899
1968
1957
1878
1763
1669
1630
1662
1761
1870
1938
1941
1895
1818
1757
1773
1850
1911
1957
1946
1885
1802
1734
1723
1761
1830
1899
1923
1904
1824
1744
1709
1772
1856
1929
1947
1898
1791
1674
1615
1627
1699
1790
1857
1872
1833
1773
1722
1728
1801
1899
1970
1995
1936
1831
1729
1663
1674
1744
1840
1926
1989
2009
2043
2151
2351
2621
2897
3152
3331
3406
3383
3311
3219
3133
3007
2815
2526
2203
1886
1644
1502
1491
1561
1663
1742
1755
1712
1642
1589
1606
1681
1771
1819
1813
1755
1669
1612
1609
1678
1757
1831
1853
1808
1718
1645
1634
1693
1786
1877
1921
1905
1840
1739
1682
1709
1782
1872
1941
1941
1886
1802
1734
1733
1795
1889
1971
2007
1977
1893
1814
1787
1842
1938
2031
2096
2096
2032
1953
1917
1940
2027
2128
2201
2209
2160
2079
2005
1999
2055
2128
2191
2210
2158
2058
1957
1919
1942
2018
2084
2111
2065
1958
1844
1778
1789
1853
1927
1979
1974
1914
1818
1759
1744
1808
1895
1966
1982
1936
1850
1760
1722
1751
1840
1929
1969
1937
1856
1774
1741
1774
1840
1921
1971
1967
1893
1791
1716
1719
1792
1891
1969
1997
1953
1861
1781
1761
1820
1914
1999
2053
2027
1937
1831
1756
1765
1831
1905
1953
1946
1867
1771
1702
1697
1756
1841
1917
1941
1905
1822
1744
1713
1751
1832
1918
1958
1936
1859
1776
1734
1758
1841
1922
1973
1957
1867
1744
1637
1600
1657
1782
1911
2017
2091
2130
2190
2306
2509
2755
2993
3184
3271
3281
3196
3045
2901
2803
2677
2480
2239
1967
1714
1535
1479
1524
1616
1699
1733
1711
1619
1535
1510
1558
1655
1741
1782
1759
1669
1581
1528
1557
1641
1728
1786
1791
1735
1658
1600
1608
1680
1780
1866
1883
1838
1751
1680
1653
1691
1776
1869
1917
1899
1825
1746
1702
1728
1817
1905
1973
1982
1919
1830
1765
1772
1852
1952
2039
2076
2039
1951
1872
1844
1890
1981
2069
2111
2073
1983
1895
1849
1873
1947
2018
2064
2037
1957
1853
1767
1751
1807
1882
1938
1943
1875
1771
1679
1634
1664
1742
1810
1846
1829
1751
1664
1616
1639
1712
1794
1853
1855
1791
1698
1641
1648
1716
1808
1872
1879
1822
1728
1650
1634
1681
1773
1851
1882
1863
1789
1701
1657
1693
1777
1872
1936
1947
1890
1806
1735
1731
1789
1871
1933
1938
1875
1774
1683
1659
1705
1791
1871
1895
1855
1758
1660
1609
1637
1727
1814
1872
1862
1792
1695
1629
1637
1706
1792
1872
1894
1849
1765
1696
1674
1727
1808
1885
1909
1866
1770
1664
1604
1613
1678
1762
1840
1879
1878
1877
1926
2055
2237
2432
2609
2715
2737
2690
2608
2525
2483
2449
2382
2243
2041
1809
1615
1497
1489
1566
1658
1729
1742
1687
1609
1535
1557
1625
1724
1803
1819
1776
1687
1607
1590
1643
1735
1819
1857
1830
1754
1671
1637
1664
1744
1829
1889
1878
1807
1719
1658
1660
1718
1813
1893
1918
1873
1792
1733
1723
1785
1875
1966
2002
1981
1904
1819
1776
1803
1882
1978
2061
2073
1995
1915
1863
1870
1931
2014
2087
2098
2033
1941
1852
1819
1863
1947
2017
2042
1993
1901
1806
1744
1776
1849
1922
1975
1968
1897
1792
1715
1716
1782
1865
1937
1957
1899
1791
1699
1682
1735
1841
1947
2002
1968
1872
1783
1739
1757
1837
1922
1975
1968
1899
1822
1763
1774
1851
1947
2031
2062
2005
1911
1822
1793
1843
1933
2006
2038
2000
1911
1811
1775
1804
1886
1971
2026
2013
1931
1826
1758
1758
1818
1903
1967
1968
1904
1811
1734
1713
1766
1853
1926
1968
1943
1859
1771
1731
1766
1841
1918
1957
1933
1853
1751
1681
1683
1776
1893
1992
2035
2000
1922
1839
1795
1818
1891
1969
2022
2032
2006
1994
2043
2173
2351
2524
2665
2719
2705
2656
2589
2526
2497
2478
2414
2274
2074
1840
1648
1567
1584
1665
1759
1811
1801
1728
1648
1616
1648
1743
1836
1874
1845
1765
1675
1626
1644
1727
1840
1935
1953
1895
1793
1712
1680
1735
1832
1918
1953
1915
1829
1747
1714
1748
1840
1923
1973
1970
1897
1790
1715
1712
1782
1878
1953
1978
1937
1869
1820
1829
1904
2007
2105
2147
2131
2060
1970
1934
1984
2086
2180
2242
2240
2162
2061
1994
2000
2074
2153
2183
2176
2099
1985
1895
1871
1921
2002
2091
2126
2096
2000
1904
1855
1882
1958
2043
2091
2067
1985
1891
1822
1821
1890
1975
2039
2047
1995
1901
1825
1808
1863
1956
2038
2087
2064
1982
1894
1869
1899
1971
2055
2107
2096
2015
1919
1863
1872
1948
2047
2135
2161
2110
2013
1936
1914
1953
2030
2105
2137
2107
2007
1909
1860
1874
1939
2022
2077
2074
2003
1921
1862
1866
1925
2010
2083
2097
2058
1983
1913
1889
1936
2013
2096
2131
2113
2023
1930
1885
1909
1985
2076
2128
2114
2032
1936
1872
1883
1954
2045
2133
2175
2159
2112
2096
2142
2269
2454
2667
2813
2864
2851
2800
2748
2727
2715
2681
2585
2414
2195
1987
1859
1833
1894
1984
2064
2087
2032
1953
1895
1899
1963
2043
2129
2174
2142
2053
1962
1917
1936
2017
2116
2181
2181
2122
2033
1979
2000
2082
2178
2256
2261
2196
2096
2007
1990
2045
2141
2224
2266
2240
2160
2070
2031
2071
2168
2263
2324
2320
2257
2173
2118
2142
2235
2346
2435
2448
2387
2290
2222
2214
2268
2343
2405
2417
2379
2287
2207
2175
2206
2285
2368
2417
2401
2316
2205
2146
2159
2231
2332
2394
2403
2337
2234
2156
2130
2164
2227
2291
2323
2288
2196
2117
2093
2123
2210
2302
2352
2352
2286
2198
2146
2163
2241
2341
2413
2411
2348
2243
2160
2133
2182
2271
2339
2350
2302
2217
2126
2085
2119
2203
2294
2347
2340
2273
2195
2148
2161
2226
2309
2359
2356
2290
2205
2128
2112
2160
2235
2293
2311
2259
2170
2090
2045
2072
2142
2213
2251
2240
2175
2096
2047
2072
2147
2234
2300
2309
2251
2153
2074
2063
2125
2215
2286
2310
2268
2167
2067
2003
2023
2098
2189
2243
2255
2224
2198
2214
2318
2490
2681
2832
2914
2919
2873
2811
2768
2753
2746
2699
2586
2403
2193
2006
1903
1890
1951
2033
2095
2085
2022
1951
1915
1930
1985
2060
2112
2113
2054
1961
1887
1874
1933
2013
2093
2113
2076
1990
1919
1900
1939
2032
2118
2161
2140
2067
1979
1930
1945
2015
2102
2160
2164
2107
2007
1934
1923
1983
2075
2149
2176
2143
2065
1990
1965
1999
2084
2163
2210
2192
2111
2018
1979
2002
2077
2155
2212
2217
2150
2047
1973
1957
2007
2096
2165
2192
2142
2047
1951
1904
1930
1991
2063
2098
2069
1979
1877
1808
1808
1873
1949
2003
2005
1943
1846
1765
1751
1818
1903
1973
2000
1969
1882
1802
1776
1825
1907
1977
2007
1978
1890
1802
1749
1775
1857
1956
2023
2023
1965
1875
1808
1807
1868
1951
2014
2035
1997
1908
1826
1792
1822
1899
1973
2002
1978
1890
1794
1733
1745
1808
1883
1925
1913
1847
1748
1667
1650
1712
1803
1879
1904
1859
1777
1703
1683
1740
1827
1908
1956
1938
1869
1777
1719
1738
1819
1910
1968
1963
1889
1780
1692
1663
1700
1779
1867
1909
1905
1883
1879
1948
2096
2276
2450
2582
2634
2608
2544
2503
2475
2465
2433
2367
2214
1995
1777
1614
1535
1573
1648
1722
1759
1728
1642
1574
1535
1594
1678
1760
1798
1776
1703
1613
1557
1584
1668
1762
1827
1828
1769
1679
1611
1600
1664
1757
1834
1857
1817
1737
1658
1629
1664
1741
1811
1858
1843
1773
1693
1648
1677
1771
1873
1946
1959
1910
1825
1776
1777
1843
1937
2015
2035
1993
1907
1834
1801
1833
1909
1963
1999
1968
1894
1808
1767
1799
1888
1980
2039
2033
1968
1869
1791
1775
1831
1909
1984
2000
1938
1838
1734
1689
1719
1792
1865
1900
1877
1810
1718
1660
1662
1723
1803
1869
1863
1796
1707
1635
1631
1697
1795
1875
1901
1867
1776
1694
1664
1712
1791
1863
1905
1883
1809
1726
1680
1703
1776
1858
1918
1920
1871
1792
1733
1738
1803
1886
1954
1968
1917
1823
1735
1699
1729
1804
1860
1877
1835
1738
1636
1573
1585
1661
1753
1811
1817
1762
1679
1607
1594
1655
1747
1819
1832
1776
1683
1598
1566
1608
1697
1780
1830
1806
1723
1620
1559
1564
1621
1695
1754
1778
1754
1724
1728
1806
1949
2141
2327
2458
2515
2510
2480
2490
2528
2559
2559
2496
2337
2095
1838
1646
1574
1581
1630
1680
1687
1647
1579
1529
1535
1619
1717
1791
1808
1755
1655
1555
1510
1535
1631
1700
1738
1710
1627
1535
1507
1535
1635
1729
1788
1781
1711
1616
1534
1535
1609
1714
1804
1837
1799
1718
1648
1622
1680
1776
1872
1919
1891
1803
1708
1663
1698
1787
1884
1953
1959
1910
1827
1767
1779
1855
1949
2025
2045
1995
1905
1831
1797
1836
1914
1987
2015
1983
1902
1808
1748
1758
1810
1881
1927
1913
1840
1737
1664
1659
1713
1805
1885
1907
1856
1759
1666
1629
1670
1761
1850
1902
1887
1808
1715
1654
1664
1729
1809
1872
1872
1798
1703
1635
1649
1726
1808
1872
1894
1856
1790
1727
1713
1771
1859
1942
1977
1946
1862
1776
1733
1765
1843
1931
1979
1968
1889
1789
1710
1706
1763
1850
1919
1936
1883
1791
1713
1691
1728
1798
1872
1904
1872
1790
1707
1663
1690
1770
1858
1920
1903
1810
1707
1641
1661
1744
1849
1926
1943
1891
1790
1706
1679
1713
1780
1838
1850
1799
1718
1664
1670
1750
1904
2090
2256
2375
2436
2480
2538
2643
2794
2942
3009
2960
2782
2541
2287
2064
1906
1821
1787
1744
1680
1597
1511
1477
1521
1615
1709
1776
1786
1727
1648
1602
1622
1700
1791
1867
1883
1840
1751
1686
1674
1728
1807
1872
1904
1873
1798
1709
1662
1689
1776
1861
1920
1911
1846
1764
1703
1701
1761
1856
1936
1966
1936
1857
1777
1749
1797
1889
1982
2033
2023
1948
1872
1840
1882
1970
2062
2103
2091
2003
1909
1845
1847
1920
2009
2090
2101
2041
1952
1877
1858
1903
1973
2037
2067
2029
1936
1840
1787
1803
1877
1948
1994
1970
1884
1775
1695
1690
1745
1829
1891
1915
1867
1777
1707
1683
1734
1825
1920
1967
1951
1875
1798
1757
1776
1844
1926
1985
1972
1906
1835
1791
1805
1878
1968
2036
2047
1994
1901
1822
1794
1843
1934
2015
2059
2025
1936
1842
1787
1801
1872
1953
2002
1989
1920
1822
1759
1763
1815
1894
1943
1943
1883
1785
1696
1676
1715
1793
1872
1918
1895
1819
1728
1681
1713
1795
1889
1958
1958
1891
1808
1750
1751
1810
1894
1948
1936
1850
1728
1615
1575
1615
1719
1852
1956
2001
2019
2059
2147
2310
2524
2752
2941
3050
3056
3005
2901
2807
2743
2674
2539
2341
2097
1856
1664
1568
1573
1650
1743
1799
1792
1727
1639
1592
1598
1648
1710
1756
1751
1699
1622
1581
1590
1650
1743
1818
1840
1789
1701
1627
1613
1671
1775
1871
1919
1890
1802
1722
1694
1730
1802
1874
1925
1909
1836
1744
1690
1718
1807
1915
2000
2023
1978
1898
1823
1811
1873
1977
2064
2095
2047
1951
1856
1814
1855
1954
2062
2121
2113
2046
1965
1910
1920
1983
2081
2143
2146
2078
1966
1867
1844
1894
1969
2033
2043
1990
1894
1792
1741
1758
1823
1904
1947
1929
1851
1744
1666
1655
1701
1767
1827
1843
1800
1718
1654
1642
1703
1793
1871
1893
1855
1771
1691
1663
1695
1776
1861
1931
1925
1872
1797
1749
1769
1835
1911
1971
1975
1920
1831
1750
1727
1773
1859
1937
1982
1954
1876
1796
1764
1802
1887
1968
2007
1985
1903
1797
1727
1728
1790
1866
1927
1931
1875
1793
1728
1713
1763
1856
1933
1967
1939
1856
1762
1719
1750
1835
1922
1971
1966
1884
1788
1717
1716
1779
1854
1899
1893
1814
1711
1629
1627
1708
1840
1984
2111
2192
2239
2304
2418
2614
2845
3067
3256
3341
3301
3152
2954
2778
2621
2448
2257
2047
1825
1616
1488
1440
1498
1604
1707
1771
1755
1679
1603
1573
1600
1680
1759
1806
1796
1714
1618
1575
1600
1680
1777
1850
1866
1813
1732
1663
1649
1706
1805
1894
1933
1899
1815
1733
1702
1732
1810
1895
1952
1950
1890
1813
1766
1792
1875
1975
2037
2046
1991
1919
1870
1875
1957
2059
2131
2163
2126
2034
1953
1920
1963
2038
2123
2167
2155
2081
1983
1922
1933
1996
2075
2133
2134
2070
1968
1875
1853
1894
1966
2023
2036
1984
1879
1787
1744
1777
1850
1923
1962
1939
1861
1765
1705
1711
1775
1857
1923
1939
1889
1810
1750
1749
1808
1904
1982
2003
1967
1887
1807
1767
1808
1890
1964
2001
1978
1903
1817
1761
1777
1843
1921
1984
2000
1953
1861
1790
1778
1840
1933
2017
2065
2031
1936
1842
1803
1838
1917
2000
2061
2044
1963
1867
1789
1778
1835
1903
1953
1947
1879
1790
1715
1711
1769
1856
1935
1966
1927
1838
1749
1711
1728
1824
1910
1966
1948
1872
1776
1719
1731
1801
1887
1943
1941
1882
1779
1698
1678
1726
1809
1902
1968
2000
2005
2035
2128
2295
2510
2736
2917
3022
3031
3006
2945
2888
2826
2747
2625
2417
2148
1885
1682
1589
1595
1663
1733
1770
1744
1679
1616
1601
1653
1748
1835
1878
1869
1796
1703
1623
1621
1687
1773
1840
1856
1818
1744
1685
1690
1758
1840
1917
1946
1899
1801
1717
1685
1735
1835
1929
1985
1985
1920
1838
1781
1777
1830
1910
1972
1980
1925
1851
1805
1821
1888
1988
2082
2122
2096
2011
1936
1918
1964
2055
2138
2177
2166
2100
2015
1955
1968
2032
2122
2187
2190
2117
2001
1921
1901
1943
2023
2094
2109
2055
1954
1867
1821
1836
1900
1963
1999
1983
1908
1823
1764
1779
1845
1925
1985
1997
1934
1835
1762
1755
1808
1887
1958
1984
1946
1859
1783
1753
1809
1914
2000
2032
2000
1919
1824
1773
1794
1883
1974
2035
2038
1975
1882
1822
1826
1895
1987
2065
2091
2055
1969
1899
1872
1913
1995
2075
2122
2099
2013
1917
1861
1881
1953
2033
2087
2066
1984
1881
1805
1787
1836
1915
1987
2016
1978
1894
1822
1803
1847
1921
2001
2047
2035
1958
1859
1799
1815
1893
1979
2038
2031
1957
1859
1789
1787
1856
1949
2007
2021
1969
1866
1774
1749
1815
1952
2112
2240
2331
2367
2385
2439
2547
2707
2875
2992
3013
2904
2723
2533
2384
2262
2156
2064
1958
1839
1699
1590
1556
1601
1696
1797
1861
1856
1786
1709
1668
1689
1760
1841
1895
1898
1841
1758
1693
1680
1742
1834
1917
1953
1917
1835
1759
1728
1765
1843
1916
1951
1932
1854
1767
1718
1745
1833
1930
2006
2013
1953
1870
1808
1813
1885
1974
2054
2086
2062
1984
1904
1869
1899
1985
2082
2141
2129
2047
1959
1907
1931
2010
2112
2178
2176
2112
2018
1946
1936
1989
2077
2140
2146
2085
1981
1883
1847
1878
1958
2033
2075
2047
1962
1870
1806
1812
1877
1961
2017
2014
1953
1869
1802
1793
1852
1930
2000
2018
1979
1889
1806
1779
1829
1911
1987
2028
1997
1920
1840
1795
1822
1897
1989
2062
2066
2000
1904
1827
1813
1861
1939
2000
2017
1974
1882
1795
1771
1820
1903
1977
2032
2031
1970
1898
1851
1872
1939
2011
2059
2047
1975
1877
1802
1787
1841
1930
1999
2011
1968
1874
1795
1774
1817
1895
1966
1993
1968
1899
1808
1772
1806
1895
1984
2047
2039
1958
1856
1786
1779
1830
1905
1982
2017
1975
1894
1813
1787
1815
1887
1962
2005
2005
1968
1920
1940
2047
2234
2423
2583
2677
2701
2682
2672
2701
2741
2764
2733
2627
2433
2190
1953
1805
1767
1778
1811
1828
1802
1729
1665
1635
1675
1759
1847
1906
1909
1851
1758
1693
1695
1763
1857
1938
1965
1920
1826
1742
1712
1745
1833
1923
1965
1940
1870
1791
1748
1780
1859
1946
2015
2025
1964
1871
1791
1791
1857
1930
1999
2032
2003
1935
1862
1841
1895
1975
2057
2095
2076
2009
1931
1891
1927
2015
2112
2163
2160
2086
1984
1915
1904
1959
2041
2112
2122
2062
1957
1866
1830
1866
1946
2027
2079
2054
1956
1855
1777
1778
1837
1908
1961
1963
1902
1818
1755
1744
1808
1904
1971
1989
1948
1866
1791
1761
1792
1861
1919
1942
1911
1839
1759
1721
1750
1837
1922
1979
1982
1920
1831
1774
1777
1843
1926
1984
1989
1936
1853
1779
1775
1828
1909
1978
2004
1983
1899
1813
1771
1807
1898
1977
2038
2043
1989
1907
1839
1831
1892
1965
2010
2011
1940
1837
1739
1713
1758
1854
1936
1974
1947
1867
1774
1712
1733
1806
1888
1945
1947
1890
1814
1769
1776
1845
1929
1993
2005
1958
1861
1777
1751
1791
1867
1931
1958
1920
1835
1743
1711
1761
1885
2031
2182
2282
2318
2326
2359
2448
2595
2736
2852
2881
2787
2608
2416
2274
2171
2106
2039
1971
1867
1730
1610
1562
1600
1703
1810
1890
1904
1846
1765
1706
1718
1782
1865
1925
1936
1887
1803
1731
1715
1774
1861
1939
1980
1961
1883
1813
1776
1815
1898
1973
2017
2003
1936
1846
1789
1792
1866
1955
2023
2032
1983
1901
1833
1827
1887
1983
2077
2128
2110
2031
1955
1914
1937
2007
2095
2158
2165
2112
2030
1984
1991
2062
2145
2206
2209
2147
2037
1942
1910
1951
2031
2116
2161
2150
2059
1938
1863
1869
1931
2004
2054
2039
1968
1867
1801
1807
1877
1968
2017
2013
1943
1846
1763
1745
1799
1888
1967
2003
1984
1904
1821
1779
1811
1904
1987
2032
2010
1943
1865
1817
1827
1891
1968
2035
2047
1997
1907
1835
1808
1855
1937
2027
2066
2034
1967
1891
1856
1886
1968
2060
2112
2101
2030
1939
1886
1893
1961
2035
2090
2091
2019
1911
1813
1791
1825
1901
1967
1986
1946
1863
1792
1763
1807
1895
1985
2053
2039
1968
1877
1815
1811
1879
1967
2033
2047
1993
1900
1819
1808
1858
1936
2001
2030
1998
1919
1840
1795
1815
1889
1966
2023
2039
2013
1968
1966
2039
2198
2384
2551
2659
2688
2663
2638
2647
2698
2736
2727
2650
2478
2234
1982
1825
1766
1794
1853
1890
1879
1819
1755
1719
1737
1811
1903
1980
1991
1938
1840
1760
1735
1786
1867
1944
1984
1959
1881
1796
1751
1786
1859
1941
2003
2006
1949
1869
1805
1807
1872
1963
2035
2063
2021
1945
1882
1875
1932
2015
2097
2134
2095
1998
1904
1867
1902
1978
2064
2128
2124
2064
1984
1937
1965
2047
2146
2218
2226
2165
2078
2000
1984
2031
2116
2193
2215
2166
2079
1987
1944
1967
2039
2116
2161
2147
2070
1963
1881
1877
1938
2027
2089
2086
2012
1915
1825
1802
1856
1942
2026
2065
2029
1937
1859
1823
1851
1934
2015
2071
2061
1975
1874
1809
1814
1885
1985
2064
2085
2031
1942
1872
1856
1904
1986
2062
2096
2047
1966
1879
1840
1870
1945
2021
2069
2042
1968
1878
1828
1841
1920
2023
2111
2119
2070
1977
1901
1884
1927
2026
2101
2121
2075
1969
1871
1822
1840
1910
1985
2021
2006
1930
1837
1776
1787
1862
1951
2022
2033
1982
1893
1829
1812
1857
1936
2010
2042
2007
1935
1856
1815
1855
1939
2033
2096
2079
1984
1872
1798
1786
1837
1919
1991
2032
2028
2000
2010
2096
2249
2438
2622
2743
2787
2768
2717
2673
2653
2643
2622
2534
2360
2124
1887
1724
1667
1699
1781
1867
1899
1857
1775
1695
1685
1744
1835
1904
1932
1889
1801
1719
1680
1717
1804
1889
1942
1930
1850
1763
1705
1717
1796
1887
1947
1947
1897
1818
1755
1749
1811
1907
1991
2021
1985
1904
1808
1776
1815
1895
1969
2019
2002
1946
1872
1829
1840
1920
2027
2112
2128
2075
1984
1918
1916
1970
2066
2148
2185
2160
2079
1995
1967
1999
2082
2160
2191
2160
2064
1949
1883
1887
1950
2026
2073
2058
1971
1871
1788
1773
1821
1900
1963
1975
1931
1840
1759
1730
1771
1849
1934
1982
1962
1885
1802
1747
1771
1842
1930
1986
1990
1931
1839
1765
1757
1813
1904
1987
2016
1972
1879
1789
1744
1774
1851
1931
1979
1965
1894
1803
1742
1743
1806
1883
1942
1950
1895
1810
1747
1755
1818
1909
1991
2025
1999
1920
1828
1792
1837
1921
2006
2058
2034
1962
1872
1817
1831
1895
1981
2033
2036
1986
1903
1825
1809
1866
1936
2000
2017
1977
1888
1791
1741
1767
1843
1925
1975
1971
1913
1834
1782
1802
1873
1963
2027
2032
1973
1893
1823
1812
1861
1935
2003
2018
1969
1872
1787
1747
1791
1890
2000
2105
2158
2161
2181
2215
2330
2499
2671
2807
2873
2854
2761
2637
2538
2481
2431
2333
2192
2007
1825
1680
1623
1648
1735
1835
1904
1896
1830
1750
1697
1713
1792
1883
1943
1943
1885
1793
1725
1713
1770
1847
1917
1942
1904
1818
1738
1712
1749
1841
1931
1989
1984
1918
1831
1776
1793
1871
1965
2057
2091
2063
2011
1975
2001
2081
2178
2266
2306
2279
2205
2135
2122
2170
2260
2345
2395
2377
2288
2201
2158
2170
2231
2319
2387
2401
2342
2247
2177
2162
2211
2288
2352
2369
2319
2211
2114
2065
2079
2135
2195
2223
2191
2105
1999
1931
1940
2012
2096
2141
2140
2073
1969
1885
1867
1909
1984
2062
2095
2064
1980
1908
1875
1913
1985
2064
2106
2077
1989
1897
1847
1863
1933
2012
2069
2064
1991
1898
1814
1808
1873
1978
2062
2090
2059
1963
1874
1845
1876
1951
2029
2077
2054
1980
1883
1830
1846
1930
2021
2087
2081
2006
1917
1840
1820
1866
1942
2015
2037
2001
1915
1828
1795
1834
1924
2018
2077
2066
2000
1922
1883
1902
1963
2034
2093
2085
2014
1918
1840
1829
1884
1963
2019
2031
1972
1871
1789
1758
1789
1865
1946
2001
1990
1920
1821
1747
1749
1813
1887
1943
1939
1885
1799
1735
1733
1794
1875
1949
1983
1937
1842
1759
1726
1764
1840
1915
1941
1918
1850
1793
1801
1887
2043
2228
2401
2514
2559
2581
2607
2677
2811
2948
3026
2976
2809
2557
2289
2064
1933
1880
1859
1836
1776
1675
1568
1505
1516
1603
1711
1783
1797
1744
1655
1606
1612
1678
1770
1838
1855
1808
1722
1649
1617
1667
1744
1829
1875
1867
1802
1735
1708
1739
1820
1904
1951
1931
1857
1771
1695
1696
1762
1846
1920
1949
1919
1847
1789
1773
1827
1918
1997
2031
2015
1951
1882
1849
1875
1968
2069
2128
2128
2071
1984
1924
1927
2000
2096
2158
2176
2135
2059
1968
1919
1943
2005
2070
2098
2059
1958
1858
1807
1819
1886
1964
2015
2009
1929
1819
1735
1722
1780
1862
1925
1936
1886
1791
1705
1680
1730
1808
1874
1910
1884
1801
1712
1670
1710
1793
1887
1951
1953
1898
1815
1744
1744
1802
1878
1943
1957
1901
1811
1731
1705
1744
1819
1884
1922
1898
1824
1739
1695
1726
1815
1905
1964
1955
1885
1785
1712
1702
1755
1820
1879
1904
1872
1796
1731
1722
1771
1856
1934
1966
1939
1863
1778
1730
1746
1815
1900
1955
1963
1915
1840
1791
1801
1873
1967
2037
2062
2003
1904
1808
1766
1792
1865
1935
1959
1921
1834
1739
1698
1712
1779
1860
1918
1911
1861
1786
1713
1701
1746
1826
1885
1890
1839
1747
1677
1667
1728
1819
1901
1939
1920
1842
1761
1714
1738
1797
1859
1904
1883
1808
1714
1673
1718
1842
2027
2215
2367
2467
2544
2617
2722
2891
3084
3255
3359
3306
3107
2854
2618
2399
2235
2106
1987
1863
1720
1594
1515
1525
1616
1719
1798
1831
1798
1723
1647
1630
1683
1783
1872
1920
1904
1829
1746
1701
1719
1792
1871
1927
1925
1865
1765
1696
1701
1776
1884
1968
2000
1967
1881
1802
1781
1837
1919
2000
2046
2005
1939
1872
1847
1887
1981
2079
2154
2145
2075
1984
1935
1952
2033
2147
2228
2256
2215
2141
2077
2066
2123
2217
2295
2325
2293
2214
2131
2085
2109
2174
2256
2303
2289
2218
2116
2034
2026
2092
2158
2203
2190
2107
1995
1904
1867
1904
1989
2068
2111
2085
1984
1895
1845
1871
1954
2055
2112
2106
2031
1936
1871
1871
1936
2026
2099
2119
2079
1995
1936
1931
1985
2074
2139
2172
2157
2080
1986
1930
1937
2000
2074
2117
2099
2023
1951
1892
1892
1959
2066
2143
2150
2096
2000
1919
1899
1941
2026
2109
2143
2119
2042
1963
1922
1936
2017
2099
2155
2138
2075
1987
1935
1938
2005
2101
2179
2207
2161
2080
2007
2002
2065
2154
2230
2267
2247
2165
2081
2032
2057
2125
2195
2245
2226
2147
2032
1955
1947
1999
2076
2129
2146
2103
2006
1939
1926
1968
2047
2125
2157
2128
2043
1959
1919
1954
2054
2144
2186
2173
2101
2001
1938
1954
2026
2117
2182
2185
2111
1988
1877
1835
1872
1965
2077
2176
2237
2251
2285
2377
2559
2829
3097
3339
3506
3582
3600
3583
3568
3504
3388
3200
2906
2557
2226
1970
1822
1781
1818
1878
1914
1891
1815
1731
1697
1729
1815
1907
1965
1957
1890
1801
1746
1766
1840
1936
2007
2022
1973
1893
1825
1820
1872
1965
2033
2064
2032
1949
1856
1821
1854
1938
2032
2101
2101
2030
1943
1892
1895
1967
2067
2151
2179
2145
2069
2004
2000
2067
2163
2251
2295
2278
2197
2128
2099
2133
2222
2303
2361
2362
2313
2240
2183
2192
2254
2346
2385
2384
2317
2213
2122
2087
2122
2190
2255
2279
2217
2125
2015
1957
1963
2014
2074
2098
2067
1968
1867
1808
1827
1903
1991
2073
2097
2047
1953
1857
1817
1851
1937
2027
2069
2032
1949
1860
1814
1837
1910
1994
2061
2053
1982
1888
1827
1840
1917
2000
2066
2075
2010
1919
1837
1811
1858
1943
2015
2047
2016
1920
1814
1769
1805
1887
1958
1994
1969
1893
1808
1767
1794
1863
1943
2006
2020
1968
1882
1812
1793
1840
1920
2005
2055
2035
1966
1878
1830
1854
1925
2009
2063
2041
1953
1847
1780
1781
1838
1914
1975
1991
1938
1846
1773
1755
1799
1877
1947
1978
1955
1872
1790
1755
1783
1858
1931
1973
1961
1885
1793
1747
1747
1803
1877
1939
1945
1898
1811
1737
1710
1745
1810
1862
1885
1868
1829
1825
1886
2037
2253
2470
2674
2831
2913
2967
3031
3139
3261
3323
3279
3113
2842
2496
2156
1903
1771
1728
1726
1711
1667
1597
1520
1489
1535
1627
1711
1762
1757
1681
1603
1565
1594
1671
1750
1808
1805
1727
1619
1535
1534
1600
1691
1775
1806
1775
1697
1619
1585
1620
1712
1792
1845
1830
1764
1693
1653
1679
1751
1839
1904
1909
1849
1759
1683
1674
1731
1826
1920
1973
1947
1872
1806
1779
1834
1935
2014
2066
2059
1989
1908
1855
1874
1953
2054
2113
2113
2055
1959
1878
1846
1882
1953
2003
2015
1954
1853
1759
1713
1743
1804
1867
1892
1864
1776
1683
1618
1623
1691
1776
1838
1839
1776
1679
1605
1589
1646
1735
1808
1845
1825
1744
1663
1626
1643
1728
1811
1851
1835
1752
1663
1615
1623
1707
1794
1840
1856
1791
1697
1617
1610
1666
1761
1843
1881
1850
1764
1685
1649
1681
1759
1842
1891
1873
1799
1712
1655
1666
1739
1811
1872
1874
1818
1744
1685
1680
1743
1833
1915
1954
1923
1837
1747
1694
1727
1821
1911
1959
1936
1855
1755
1687
1694
1759
1830
1877
1879
1813
1712
1639
1634
1703
1801
1878
1908
1872
1783
1699
1675
1712
1782
1857
1904
1883
1815
1732
1683
1701
1769
1849
1910
1916
1856
1760
1686
1680
1745
1856
1981
2070
2115
2131
2174
2270
2429
2619
2791
2912
2960
2907
2779
2634
2512
2427
2325
2207
2064
1882
1700
1575
1535
1595
1696
1785
1821
1795
1727
1652
1629
1679
1765
1857
1905
1894
1823
1742
1694
1712
1783
1861
1919
1919
1862
1775
1712
1722
1798
1890
1958
1983
1946
1863
1782
1747
1790
1879
1968
2022
2009
1938
1863
1821
1843
1920
2005
2079
2094
2031
1959
1904
1914
1983
2078
2148
2165
2120
2043
1979
1959
2006
2103
2195
2246
2224
2143
2047
1982
1985
2047
2128
2181
2173
2107
2011
1937
1917
1964
2035
2096
2097
2045
1951
1869
1826
1855
1919
1986
2031
2014
1941
1853
1791
1805
1863
1927
1982
1985
1930
1851
1789
1782
1839
1919
1987
2011
1975
1902
1826
1800
1846
1929
2000
2038
2005
1930
1838
1776
1797
1875
1975
2038
2037
1979
1891
1826
1830
1877
1943
2005
2029
1990
1915
1846
1829
1875
1958
2038
2091
2062
1968
1867
1813
1835
1911
2007
2095
2111
2059
1968
1899
1881
1930
1995
2046
2057
2000
1917
1840
1810
1851
1951
2036
2090
2059
1967
1863
1795
1805
1857
1931
1983
1995
1945
1856
1787
1794
1856
1943
2012
2026
1989
1899
1809
1778
1817
1902
1983
2029
2001
1918
1819
1749
1749
1815
1904
1970
2005
1995
1975
1998
2099
2267
2461
2646
2779
2817
2783
2737
2688
2665
2649
2608
2499
2315
2081
1860
1722
1680
1715
1787
1855
1871
1830
1755
1707
1712
1779
1868
1939
1968
1921
1839
1761
1743
1792
1885
1972
2012
1987
1911
1826
1789
1818
1891
1968
2031
2038
1982
1891
1823
1805
1863
1957
2033
2064
2019
1936
1856
1825
1872
1950
2035
2096
2094
2023
1947
1917
1948
2038
2145
2215
2219
2163
2085
2019
2030
2102
2191
2260
2271
2218
2123
2043
2015
2066
2155
2225
2256
2223
2128
2045
1997
2005
2064
2131
2179
2178
2114
2006
1919
1915
1971
2047
2103
2106
2053
1962
1886
1866
1909
1987
2064
2096
2064
1979
1890
1842
1868
1942
2020
2081
2079
2000
1905
1839
1840
1904
1997
2085
2105
2055
1969
1898
1873
1924
2002
2087
2127
2096
2001
1915
1877
1919
1997
2084
2138
2138
2083
1986
1921
1923
1983
2064
2128
2144
2099
2014
1942
1931
1989
2096
2183
2231
2205
2121
2023
1969
1983
2043
2107
2144
2130
2064
1971
1898
1875
1936
2013
2071
2075
2025
1948
1877
1859
1904
1987
2071
2111
2093
2015
1931
1873
1899
1974
2064
2111
2099
2036
1961
1909
1919
1983
2079
2143
2157
2101
2007
1930
1911
1963
2067
2175
2256
2287
2271
2262
2309
2424
2608
2783
2917
2973
2942
2835
2704
2596
2531
2493
2432
2307
2155
1994
1843
1808
1840
1929
2007
2061
2035
1968
1894
1859
1895
1981
2071
2122
2113
2047
1959
1898
1893
1958
2061
2134
2157
2112
2022
1939
1918
1967
2067
2157
2192
2160
2078
1985
1941
1973
2065
2150
2202
2192
2122
2031
1971
1983
2064
2160
2231
2256
2219
2141
2086
2071
2131
2230
2315
2356
2330
2249
2157
2097
2118
2194
2291
2363
2362
2303
2211
2158
2165
2227
2311
2370
2370
2308
2202
2109
2065
2091
2175
2256
2300
2270
2180
2095
2035
2058
2119
2191
2228
2211
2131
2035
1978
1984
2054
2145
2215
2227
2176
2077
1986
1964
2013
2106
2181
2207
2174
2097
2015
1968
1977
2042
2128
2181
2179
2113
2029
1969
1976
2054
2146
2221
2231
2183
2100
2014
1990
2041
2131
2215
2262
2239
2151
2061
2003
2017
2093
2179
2247
2257
2201
2117
2047
2055
2121
2213
2277
2291
2228
2126
2033
2017
2071
2158
2224
2249
2210
2123
2018
1963
1979
2061
2138
2182
2165
2095
2000
1937
1952
2021
2112
2177
2192
2145
2064
1983
1962
2003
2099
2183
2224
2197
2113
2018
1969
1983
2039
2107
2155
2160
2115
2071
2064
2137
2288
2461
2621
2727
2763
2754
2739
2768
2831
2889
2897
2833
2687
2467
2239
2064
1973
1965
1991
2015
1993
1931
1859
1808
1817
1891
1995
2073
2090
2034
1950
1871
1853
1904
1985
2064
2109
2090
2015
1946
1898
1923
2003
2096
2157
2151
2081
1983
1918
1919
1983
2063
2128
2147
2097
2017
1951
1935
1977
2064
2139
2173
2150
2090
2010
1982
2015
2107
2201
2281
2290
2238
2150
2089
2093
2162
2256
2327
2342
2291
2208
2122
2110
2154
2225
2295
2322
2288
2199
2122
2071
2090
2153
2215
2256
2233
2155
2043
1968
1957
2001
2085
2141
2150
2105
2002
1913
1872
1899
1969
2059
2101
2075
1993
1900
1840
1857
1935
2016
2078
2076
2010
1920
1852
1854
1920
2012
2083
2090
2019
1936
1867
1846
1879
1959
2031
2064
2025
1946
1867
1818
1840
1920
2001
2064
2064
1991
1905
1840
1839
1896
1979
2042
2064
2028
1961
1903
1894
1939
2026
2106
2130
2091
1988
1895
1846
1859
1925
1998
2042
2017
1947
1863
1808
1808
1872
1961
2032
2039
1968
1856
1769
1744
1798
1897
1979
2014
1983
1895
1809
1776
1808
1891
1970
2016
2007
1945
1858
1801
1797
1855
1927
1969
1959
1893
1798
1735
1757
1861
2023
2193
2337
2418
2450
2463
2506
2617
2759
2886
2941
2871
2701
2480
2271
2109
2004
1950
1913
1855
1767
1653
1577
1571
1649
1774
1869
1913
1883
1805
1718
1670
1691
1765
1840
1888
1870
1793
1700
1645
1650
1721
1815
1889
1901
1840
1744
1665
1654
1712
1808
1895
1939
1931
1865
1792
1766
1808
1890
1969
2017
2010
1936
1853
1792
1792
1858
1947
2017
2032
1989
1907
1843
1839
1894
1983
2054
2080
2042
1968
1899
1862
1895
1970
2061
2112
2096
2013
1920
1859
1863
1931
2003
2063
2061
1985
1882
1792
1766
1806
1877
1945
1969
1923
1822
1718
1664
1682
1765
1856
1903
1883
1808
1712
1635
1654
1713
1817
1880
1882
1815
1725
1643
1618
1664
1731
1815
1845
1822
1747
1676
1634
1671
1759
1840
1892
1882
1814
1726
1660
1664
1728
1815
1887
1900
1831
1726
1648
1635
1695
1789
1862
1899
1872
1805
1723
1678
1707
1791
1873
1920
1907
1840
1753
1699
1712
1774
1859
1933
1937
1888
1811
1741
1715
1753
1814
1873
1899
1856
1774
1693
1658
1685
1757
1826
1872
1859
1783
1689
1636
1645
1712
1791
1849
1856
1806
1717
1649
1641
1694
1783
1857
1886
1857
1779
1709
1680
1730
1821
1895
1924
1889
1794
1707
1655
1695
1817
1974
2131
2256
2326
2375
2432
2532
2690
2864
3011
3088
3029
2864
2655
2466
2309
2179
2065
1953
1830
1676
1532
1457
1470
1555
1664
1764
1810
1782
1701
1625
1609
1649
1724
1791
1813
1788
1712
1642
1616
1667
1757
1855
1901
1879
1812
1719
1662
1667
1744
1846
1911
1926
1874
1796
1731
1717
1770
1851
1921
1952
1922
1851
1775
1751
1798
1889
1972
2025
2013
1957
1890
1856
1895
1985
2096
2170
2179
2134
2067
2007
2013
2067
2145
2224
2250
2217
2133
2041
1995
2023
2107
2176
2205
2172
2080
1971
1903
1893
1936
2000
2037
2031
1968
1878
1810
1799
1854
1942
2019
2034
1981
1887
1787
1731
1761
1840
1921
1966
1943
1862
1779
1734
1762
1834
1920
1977
1986
1939
1858
1776
1763
1819
1908
1981
2003
1958
1868
1787
1751
1798
1890
1975
2023
2000
1926
1836
1778
1774
1815
1897
1954
1966
1919
1842
1772
1758
1811
1891
1967
1984
1935
1839
1744
1713
1754
1840
1924
1983
1982
1917
1840
1797
1818
1899
2002
2077
2094
2037
1952
1877
1871
1913
1983
2055
2064
2000
1907
1821
1781
1825
1903
1964
1990
1968
1887
1791
1743
1767
1846
1935
1989
2001
1951
1864
1795
1788
1855
1950
2038
2064
2000
1898
1805
1775
1811
1907
2000
2047
2032
1936
1812
1725
1715
1776
1857
1935
1983
1993
1999
2057
2192
2407
2656
2880
3060
3182
3203
3203
3221
3251
3248
3186
3022
2736
2383
2064
1824
1712
1696
1739
1797
1809
1744
1657
1589
1585
1658
1757
1839
1872
1830
1739
1661
1639
1685
1783
1868
1911
1899
1831
1750
1709
1728
1803
1903
1968
1977
1910
1823
1743
1728
1794
1895
1982
2006
1966
1875
1804
1786
1831
1922
2017
2078
2067
1990
1909
1867
1889
1973
2079
2147
2158
2102
2011
1955
1965
2045
2159
2246
2278
2245
2173
2099
2064
2109
2198
2291
2338
2315
2227
2128
2062
2064
2122
2192
2229
2215
2129
2007
1920
1891
1934
2009
2074
2079
2017
1915
1823
1783
1810
1878
1947
1985
1965
1872
1773
1711
1731
1808
1895
1959
1968
1917
1840
1783
1783
1853
1943
2013
2032
1991
1895
1815
1787
1823
1903
1978
2015
1991
1911
1824
1767
1776
1850
1934
1995
1995
1928
1849
1780
1773
1823
1907
1984
2014
1975
1885
1799
1775
1821
1907
1981
2010
1975
1894
1804
1753
1769
1840
1925
1984
1986
1935
1855
1794
1808
1870
1963
2035
2065
2017
1931
1855
1837
1885
1973
2055
2090
2055
1957
1859
1808
1821
1879
1953
1994
1981
1904
1808
1739
1744
1795
1870
1931
1939
1891
1802
1727
1710
1751
1857
1937
1984
1961
1882
1799
1745
1750
1810
1882
1936
1936
1881
1806
1739
1744
1810
1902
1959
1966
1897
1789
1703
1677
1746
1886
2034
2167
2257
2315
2369
2465
2640
2864
3103
3294
3403
3363
3216
3007
2826
2672
2506
2321
2134
1936
1737
1588
1517
1535
1629
1722
1790
1794
1733
1662
1617
1638
1712
1789
1837
1837
1783
1712
1657
1666
1730
1813
1887
1911
1872
1792
1719
1699
1741
1821
1904
1950
1933
1865
1790
1744
1767
1840
1913
1969
1967
1907
1833
1790
1803
1883
1975
2043
2059
2010
1930
1870
1860
1923
2027
2114
2160
2146
2069
1985
1945
1981
2075
2169
2226
2217
2158
2083
2023
2010
2064
2131
2189
2195
2142
2054
1962
1922
1953
2027
2093
2108
2064
1967
1856
1791
1797
1841
1902
1947
1942
1883
1809
1755
1754
1812
1892
1954
1968
1911
1827
1744
1716
1760
1856
1939
1982
1965
1895
1814
1767
1783
1857
1937
1984
1982
1915
1815
1744
1746
1821
1915
1989
2017
1973
1877
1783
1744
1783
1862
1935
1979
1959
1874
1789
1743
1765
1835
1917
1969
1970
1914
1838
1776
1776
1835
1907
1963
1969
1921
1837
1759
1739
1788
1871
1947
1988
1977
1904
1815
1762
1786
1871
1963
2018
2022
1962
1879
1824
1828
1890
1966
2022
2037
1986
1885
1796
1761
1793
1871
1936
1961
1919
1837
1757
1712
1730
1807
1883
1936
1938
1872
1779
1713
1723
1788
1873
1947
1962
1906
1810
1731
1712
1775
1870
1955
1993
1979
1886
1778
1722
1709
1786
1855
1903
1891
1818
1744
1718
1783
1947
2137
2345
2496
2587
2624
2650
2724
2861
3009
3111
3089
2935
2694
2415
2165
1994
1911
1878
1858
1814
1728
1629
1567
1571
1642
1731
1797
1813
1767
1689
1630
1626
1691
1791
1872
1914
1888
1815
1729
1689
1712
1779
1856
1909
1905
1838
1739
1676
1679
1740
1818
1893
1932
1902
1818
1735
1703
1735
1818
1895
1934
1905
1833
1755
1718
1754
1835
1911
1968
1973
1919
1842
1792
1797
1877
1981
2067
2096
2054
1967
1887
1870
1921
2015
2101
2131
2104
2023
1934
1878
1899
1968
2042
2090
2067
1984
1872
1792
1778
1835
1904
1946
1941
1877
1778
1681
1649
1693
1777
1854
1887
1856
1775
1691
1647
1677
1758
1838
1887
1877
1808
1717
1655
1667
1743
1829
1889
1894
1840
1753
1684
1665
1710
1785
1859
1898
1866
1791
1707
1664
1692
1771
1850
1903
1903
1830
1742
1680
1698
1769
1847
1905
1914
1855
1757
1680
1659
1700
1783
1871
1916
1895
1810
1712
1667
1703
1786
1886
1954
1957
1903
1818
1757
1754
1813
1904
1968
1977
1918
1823
1739
1697
1728
1803
1865
1886
1851
1771
1680
1643
1675
1760
1844
1901
1887
1805
1711
1647
1653
1725
1808
1872
1877
1825
1743
1671
1654
1712
1799
1883
1921
1891
1808
1714
1666
1688
1765
1840
1885
1871
1805
1727
1696
1754
1895
2071
2233
2352
2419
2437
2449
2498
2611
2735
2818
2803
2683
2480
2254
2038
1904
1845
1820
1803
1744
1659
1572
1514
1523
1603
1703
1783
1799
1750
1665
1607
1591
1637
1735
1822
1859
1835
1748
1674
1649
1681
1761
1847
1903
1897
1828
1744
1685
1698
1770
1855
1922
1946
1901
1818
1746
1742
1789
1882
1968
2003
1983
1889
1797
1759
1793
1872
1954
2000
1998
1936
1872
1838
1863
1941
2029
2096
2110
2063
1979
1908
1895
1949
2032
2109
2134
2096
2003
1917
1862
1882
1957
2038
2091
2077
1999
1906
1835
1822
1872
1936
1985
1981
1915
1811
1723
1703
1754
1842
1917
1943
1904
1809
1727
1683
1711
1783
1865
1914
1901
1829
1758
1709
1718
1792
1883
1945
1941
1874
1778
1714
1713
1765
1845
1921
1958
1934
1854
1774
1728
1750
1825
1901
1954
1954
1891
1808
1757
1763
1818
1893
1949
1954
1891
1798
1728
1718
1769
1863
1947
1984
1963
1893
1821
1790
1825
1908
1987
2041
2033
1963
1874
1822
1812
1861
1935
1989
1989
1931
1837
1744
1721
1776
1871
1951
1971
1925
1826
1734
1696
1739
1823
1906
1956
1945
1879
1798
1744
1763
1826
1905
1968
1983
1936
1855
1787
1770
1807
1881
1946
1967
1911
1814
1733
1709
1761
1879
2015
2143
2221
2240
2259
2319
2437
2592
2739
2846
2880
2813
2653
2470
2331
2234
2160
2080
1984
1858
1719
1606
1535
1584
1678
1790
1856
1856
1793
1716
1673
1693
1762
1851
1909
1920
1866
1776
1706
1697
1759
1856
1941
1973
1934
1840
1744
1702
1742
1829
1922
1987
1983
1915
1835
1773
1771
1832
1916
1978
1986
1942
1867
1803
1800
1865
1957
2037
2079
2047
1969
1899
1878
1920
2003
2097
2151
2129
2065
1982
1943
1967
2039
2132
2205
2208
2150
2064
1984
1965
2010
2087
2143
2159
2112
2020
1930
1881
1907
1971
2033
2082
2063
1984
1898
1839
1839
1903
1974
2025
2028
1961
1869
1802
1790
1851
1936
2007
2031
1985
1902
1825
1792
1821
1898
1971
2021
2009
1938
1858
1808
1837
1907
1989
2047
2047
1997
1915
1847
1838
1886
1973
2045
2074
2022
1936
1847
1829
1872
1943
2015
2047
2027
1951
1867
1811
1821
1899
1987
2061
2069
2009
1921
1855
1849
1915
2013
2103
2134
2101
2009
1925
1881
1895
1959
2027
2064
2032
1954
1871
1821
1833
1893
1971
2030
2033
1979
1888
1815
1806
1861
1954
2023
2055
2002
1910
1819
1786
1818
1894
1971
2012
1993
1915
1823
1770
1792
1872
1963
2028
2033
1975
1879
1802
1791
1856
1959
2064
2138
2178
2187
2217
2301
2451
2640
2820
2947
2994
2960
2880
2775
2698
2639
2559
2448
2278
2076
1861
1706
1645
1669
1737
1811
1863
1856
1794
1723
1687
1726
1815
1904
1950
1931
1854
1759
1707
1726
1804
1890
1951
1956
1904
1819
1746
1730
1779
1863
1939
1969
1933
1853
1776
1747
1789
1872
1955
2002
1987
1913
1827
1778
1808
1905
2010
2091
2098
2037
1949
1882
1874
1938
2035
2121
2147
2111
2026
1951
1936
1995
2102
2193
2241
2224
2147
2064
2010
2030
2112
2192
2237
2231
2153
2045
1959
1942
1994
2077
2130
2142
2093
1990
1893
1840
1865
1939
2018
2060
2032
1943
1843
1776
1786
1850
1922
1972
1973
1921
1847
1788
1773
1814
1897
1956
1991
1951
1869
1794
1774
1819
1906
1998
2038
2027
1939
1840
1777
1792
1867
1951
2005
2000
1933
1829
1750
1739
1797
1888
1974
2001
1958
1863
1783
1753
1797
1882
1956
1997
1975
1893
1803
1744
1757
1822
1907
1989
2015
1975
1903
1841
1837
1887
1974
2047
2075
2017
1919
1824
1789
1821
1898
1969
2002
1971
1886
1792
1735
1754
1847
1952
2030
2042
1983
1883
1799
1779
1830
1910
1973
1998
1943
1854
1766
1744
1795
1890
1978
2025
2000
1920
1834
1777
1785
1840
1903
1937
1922
1855
1761
1716
1761
1892
2081
2265
2407
2480
2511
2550
2638
2771
2934
3071
3142
3065
2879
2645
2416
2224
2098
2000
1927
1840
1714
1597
1507
1502
1578
1679
1770
1805
1787
1721
1655
1633
1677
1759
1850
1898
1878
1808
1733
1691
1709
1778
1857
1915
1919
1856
1757
1680
1674
1735
1818
1884
1904
1859
1772
1694
1670
1718
1811
1899
1938
1917
1847
1776
1743
1776
1861
1951
2015
2030
1981
1908
1851
1854
1927
2033
2127
2163
2145
2081
2011
1991
2043
2143
2224
2263
2240
2154
2045
1990
2000
2075
2153
2199
2183
2098
1983
1898
1871
1904
1966
2011
2011
1968
1889
1808
1771
1799
1873
1943
1978
1943
1853
1759
1711
1729
1808
1883
1935
1920
1859
1789
1737
1735
1797
1870
1926
1942
1902
1819
1744
1723
1767
1846
1922
1967
1947
1875
1798
1747
1770
1840
1917
1969
1966
1901
1810
1754
1760
1827
1911
1982
1995
1947
1857
1776
1742
1779
1863
1940
1981
1967
1896
1803
1749
1770
1840
1920
1984
1988
1927
1845
1795
1810
1871
1964
2041
2074
2032
1954
1878
1849
1903
1991
2075
2096
2063
1961
1841
1767
1767
1825
1906
1968
1971
1907
1819
1755
1754
1818
1902
1968
1981
1933
1844
1767
1744
1792
1874
1958
1989
1959
1881
1801
1757
1779
1853
1943
1998
1982
1891
1792
1712
1702
1758
1840
1909
1955
1974
1985
2021
2128
2326
2559
2820
3034
3181
3246
3265
3295
3358
3397
3351
3222
2977
2640
2271
1969
1787
1730
1742
1776
1782
1733
1647
1567
1557
1618
1713
1799
1845
1828
1754
1677
1645
1670
1743
1829
1891
1883
1823
1735
1676
1680
1745
1841
1920
1952
1914
1831
1765
1747
1799
1874
1948
1987
1975
1920
1851
1818
1851
1925
2005
2064
2064
1995
1917
1869
1879
1953
2043
2126
2149
2111
2032
1968
1963
2031
2142
2239
2286
2267
2196
2118
2082
2109
2181
2261
2309
2288
2204
2098
2022
2015
2082
2156
2203
2208
2149
2045
1953
1917
1936
2001
2067
2087
2046
1958
1861
1802
1811
1877
1951
2000
1999
1934
1840
1782
1789
1855
1949
2019
2035
1993
1904
1815
1789
1830
1910
1990
2018
1981
1899
1815
1777
1814
1905
1991
2055
2057
1987
1895
1838
1840
1897
1968
2028
2034
1984
1899
1820
1786
1830
1917
1995
2033
2011
1943
1867
1827
1857
1930
2001
2055
2043
1971
1877
1808
1807
1879
1973
2035
2045
1993
1903
1825
1803
1853
1935
2007
2035
2000
1917
1840
1808
1860
1955
2053
2118
2130
2077
1991
1936
1941
2002
2080
2128
2126
2072
1973
1903
1878
1917
1989
2064
2096
2031
1927
1846
1801
1835
1912
1995
2046
2035
1968
1872
1819
1831
1904
1995
2069
2090
2039
1950
1866
1847
1889
1971
2046
2081
2058
1968
1873
1827
1835
1889
1941
1966
1935
1872
1815
1821
1920
2095
2301
2512
2694
2816
2897
2992
3139
3337
3551
3750
3804
3622
3307
2965
2639
2369
2189
2070
1972
1872
1747
1627
1556
1559
1635
1733
1815
1841
1799
1714
1648
1636
1686
1773
1849
1873
1839
1766
1682
1641
1659
1738
1831
1901
1904
1844
1760
1705
1710
1775
1861
1922
1931
1872
1778
1701
1680
1741
1834
1922
1969
1961
1895
1819
1783
1811
1903
2000
2074
2078
2015
1942
1898
1911
1986
2093
2166
2185
2142
2065
1996
1989
2059
2151
2229
2267
2237
2157
2066
2017
2028
2090
2151
2191
2177
2106
2002
1935
1936
1990
2067
2115
2114
2037
1933
1840
1808
1840
1910
1981
2004
1968
1887
1814
1775
1799
1877
1956
2003
1995
1923
1829
1761
1755
1825
1919
1989
2000
1951
1863
1789
1776
1821
1889
1952
1976
1945
1872
1797
1758
1788
1861
1936
1984
1970
1892
1796
1730
1731
1799
1886
1957
1970
1920
1835
1757
1744
1808
1895
1974
2000
1966
1872
1778
1739
1775
1856
1942
1998
1983
1911
1821
1756
1765
1838
1919
1981
1983
1922
1839
1774
1773
1845
1942
2033
2081
2063
1985
1906
1869
1901
1969
2032
2080
2063
1975
1871
1792
1789
1844
1909
1963
1961
1904
1804
1722
1710
1773
1872
1949
1968
1927
1841
1765
1734
1773
1854
1936
1988
1978
1907
1821
1771
1785
1857
1947
2017
2020
1957
1855
1771
1744
1777
1840
1899
1918
1904
1866
1841
1882
2019
2237
2455
2663
2800
2865
2902
2960
3056
3185
3251
3210
3050
2795
2479
2174
1951
1846
1821
1821
1813
1765
1680
1607
1600
1651
1750
1842
1900
1898
1823
1731
1679
1690
1759
1836
1893
1899
1840
1763
1695
1681
1741
1834
1914
1943
1909
1828
1744
1715
1758
1849
1936
1988
1967
1898
1825
1793
1826
1904
1986
2055
2064
1997
1905
1843
1842
1909
1998
2086
2129
2114
2045
1981
1963
2004
2101
2186
2246
2243
2173
2078
2021
2043
2127
2217
2269
2263
2202
2115
2038
2028
2083
2162
2224
2235
2175
2063
1947
1891
1908
1980
2064
2107
2088
2001
1906
1847
1849
1905
1978
2030
2037
1987
1903
1827
1817
1866
1943
2010
2033
2001
1920
1839
1812
1858
1945
2026
2069
2046
1964
1872
1813
1834
1907
2000
2074
2083
2014
1921
1845
1839
1892
1983
2066
2107
2064
1968
1877
1844
1872
1951
2032
2082
2062
1979
1889
1840
1853
1927
2015
2085
2095
2034
1951
1878
1869
1926
2015
2097
2128
2102
2029
1953
1921
1958
2045
2129
2178
2173
2109
2019
1953
1955
2013
2094
2143
2139
2066
1968
1898
1895
1956
2037
2112
2128
2079
1990
1907
1881
1921
2007
2091
2126
2105
2021
1931
1886
1920
1993
2095
2160
2165
2101
2001
1935
1921
1978
2064
2132
2159
2109
2003
1906
1870
1910
2021
2155
2259
2316
2331
2350
2410
2541
2734
2925
3084
3156
3149
3066
2938
2823
2748
2681
2559
2417
2230
2025
1857
1774
1791
1869
1963
2023
2017
1955
1891
1853
1872
1949
2043
2117
2129
2081
1982
1907
1898
1939
2022
2097
2117
2078
1990
1915
1888
1937
2034
2121
2170
2160
2096
2018
1969
1993
2070
2147
2205
2215
2165
2089
2026
2026
2090
2182
2263
2293
2256
2185
2114
2095
2137
2226
2313
2367
2351
2277
2192
2144
2179
2271
2363
2432
2437
2379
2288
2224
2222
2268
2340
2400
2415
2371
2286
2196
2161
2190
2259
2332
2358
2334
2255
2159
2096
2099
2159
2238
2293
2294
2234
2134
2047
2029
2085
2165
2235
2256
2215
2128
2054
2025
2064
2141
2219
2256
2239
2170
2092
2039
2065
2134
2217
2279
2286
2225
2144
2071
2061
2112
2199
2270
2293
2245
2157
2071
2042
2096
2187
2261
2291
2256
2181
2099
2045
2064
2128
2210
2269
2273
2223
2142
2081
2065
2119
2199
2272
2293
2256
2181
2112
2101
2142
2223
2297
2336
2310
2235
2149
2096
2110
2167
2239
2281
2256
2181
2092
2017
2006
2074
2170
2253
2289
2246
2157
2070
2027
2061
2135
2211
2254
2246
2183
2102
2043
2062
2129
2207
2254
2241
2175
2086
2005
2006
2079
2160
2221
2225
2177
2080
1993
1974
2033
2157
2285
2384
2437
2459
2470
2518
2645
2816
2983
3111
3151
3095
2960
2800
2672
2586
2507
2414
2294
2150
1987
1859
1811
1852
1941
2037
2097
2091
2021
1941
1889
1907
1986
2083
2145
2154
2096
2005
1936
1925
1982
2063
2129
2134
2085
1995
1923
1904
1958
2057
2134
2175
2156
2081
1986
1937
1963
2040
2131
2200
2205
2146
2061
2000
2003
2093
2177
2249
2266
2224
2134
2064
2047
2112
2196
2270
2302
2271
2194
2118
2094
2123
2199
2288
2349
2347
2282
2191
2129
2129
2181
2251
2301
2304
2246
2153
2065
2022
2063
2129
2197
2222
2187
2098
2000
1946
1966
2041
2129
2182
2170
2093
1990
1916
1909
1962
2034
2111
2129
2103
2032
1955
1931
1968
2043
2114
2145
2114
2032
1951
1914
1946
2023
2113
2167
2160
2085
1989
1927
1930
1984
2055
2112
2129
2086
1999
1924
1903
1943
2022
2106
2146
2128
2043
1959
1914
1936
2002
2086
2139
2135
2077
1977
1912
1912
1970
2058
2125
2139
2092
1995
1920
1898
1936
2019
2097
2126
2085
1991
1901
1854
1875
1957
2033
2099
2112
2047
1952
1879
1877
1937
2019
2086
2093
2029
1934
1855
1833
1877
1967
2037
2071
2034
1951
1859
1815
1853
1933
2009
2055
2037
1981
1895
1831
1822
1872
1943
2010
2044
2014
1957
1923
1966
2091
2251
2411
2535
2603
2608
2591
2598
2658
2751
2811
2791
2679
2493
2255
2032
1903
1867
1886
1911
1904
1840
1745
1673
1662
1730
1836
1919
1953
1921
1840
1760
1712
1732
1809
1903
1959
1951
1883
1792
1731
1728
1789
1882
1959
1977
1922
1847
1775
1746
1808
1904
1978
2007
1983
1901
1822
1798
1836
1915
1990
2039
2033
1975
1900
1837
1838
1902
1993
2069
2094
2054
1968
1898
1877
1921
1999
2075
2114
2098
2032
1966
1926
1954
2030
2105
2149
2132
2059
1963
1899
1893
1963
2047
2121
2117
2047
1937
1847
1807
1852
1920
1981
2003
1973
1888
1807
1771
1788
1861
1938
1981
1966
1878
1774
1705
1710
1775
1861
1924
1945
1907
1831
1751
1735
1784
1871
1948
1979
1942
1855
1763
1713
1734
1807
1889
1950
1943
1873
1782
1713
1719
1783
1865
1933
1941
1889
1799
1728
1712
1763
1851
1931
1968
1936
1844
1753
1712
1744
1834
1920
1990
1990
1933
1857
1804
1801
1855
1925
1983
1988
1942
1829
1744
1719
1763
1840
1905
1923
1879
1799
1723
1683
1711
1781
1858
1906
1893
1815
1730
1671
1669
1727
1801
1861
1872
1819
1734
1673
1664
1714
1798
1872
1901
1862
1779
1697
1661
1703
1785
1863
1903
1881
1806
1711
1649
1675
1779
1906
2031
2130
2177
2179
2196
2257
2379
2518
2637
2688
2661
2539
2378
2218
2112
2028
1958
1881
1781
1664
1535
1470
1474
1552
1648
1723
1745
1699
1615
1535
1535
1603
1694
1771
1802
1776
1690
1603
1575
1612
1691
1771
1825
1810
1732
1648
1583
1591
1663
1744
1807
1817
1763
1675
1601
1594
1647
1741
1826
1872
1843
1763
1680
1645
1673
1750
1841
1895
1893
1819
1735
1681
1705
1792
1894
1973
1984
1936
1857
1794
1778
1838
1934
2019
2066
2037
1968
1898
1856
1872
1936
1991
2022
2001
1936
1841
1771
1763
1814
1882
1935
1935
1863
1755
1661
1635
1679
1754
1824
1856
1809
1718
1631
1595
1637
1727
1814
1854
1832
1744
1649
1595
1611
1691
1783
1851
1856
1806
1711
1622
1609
1664
1751
1829
1863
1834
1749
1662
1619
1651
1729
1805
1851
1839
1766
1681
1629
1636
1697
1779
1839
1851
1812
1745
1680
1664
1715
1799
1872
1903
1865
1775
1693
1670
1713
1803
1893
1942
1935
1865
1773
1711
1709
1762
1840
1903
1912
1856
1767
1691
1670
1707
1779
1850
1877
1845
1761
1683
1647
1680
1762
1840
1881
1859
1793
1719
1666
1678
1737
1809
1872
1889
1846
1773
1710
1695
1744
1830
1904
1935
1898
1802
1707
1650
1680
1751
1839
1913
1949
1943
1935
1968
2083
2251
2437
2595
2681
2699
2653
2591
2538
2510
2480
2423
2307
2118
1881
1680
1569
1555
1628
1712
1774
1776
1730
1669
1635
1651
1714
1797
1866
1875
1821
1742
1665
1649
1702
1797
1882
1916
1872
1779
1688
1649
1685
1774
1863
1924
1920
1852
1771
1717
1740
1810
1897
1959
1982
1943
1867
1794
1787
1845
1936
2003
2025
1985
1909
1839
1815
1863
1952
2039
2106
2112
2059
1984
1950
1971
2047
2139
2210
2224
2181
2101
2035
2035
2096
2163
2251
2283
2238
2134
2037
1991
2015
2086
2150
2187
2164
2084
1973
1903
1890
1938
2001
2059
2062
1988
1883
1795
1776
1818
1894
1962
1984
1949
1872
1799
1761
1792
1867
1941
1994
1977
1904
1808
1747
1761
1833
1919
1988
2005
1958
1875
1808
1791
1840
1920
1991
2015
1979
1891
1813
1793
1833
1902
1968
2009
1989
1919
1850
1795
1792
1846
1931
2005
2026
1985
1915
1853
1840
1879
1961
2035
2073
2045
1975
1909
1879
1910
1973
2055
2096
2076
1995
1904
1843
1846
1911
1988
2047
2037
1968
1870
1795
1774
1817
1899
1969
2000
1966
1887
1808
1776
1808
1881
1955
1994
1970
1904
1822
1773
1786
1861
1946
2007
2005
1946
1855
1782
1773
1815
1888
1941
1958
1926
1867
1839
1872
1991
2171
2351
2493
2589
2624
2642
2675
2761
2889
3007
3039
2962
2771
2512
2234
2005
1887
1841
1821
1792
1727
1648
1600
1603
1677
1796
1895
1959
1951
1883
1805
1746
1750
1811
1899
1949
1951
1899
1820
1767
1760
1815
1905
1974
1995
1969
1890
1813
1783
1827
1915
1990
2034
2030
1962
1875
1826
1840
1907
1995
2059
2074
2021
1943
1886
1891
1957
2046
2131
2180
2166
2100
2022
2003
2057
2147
2240
2298
2293
2231
2151
2109
2130
2206
2293
2352
2355
2291
2192
2109
2089
2141
2224
2287
2302
2249
2150
2055
2000
2022
2092
2146
2164
2126
2026
1915
1840
1851
1911
1980
2027
2022
1962
1875
1814
1808
1869
1952
2023
2047
2003
1918
1834
1790
1827
1912
1991
2043
2032
1968
1883
1829
1840
1910
2016
2084
2100
2042
1951
1872
1851
1907
1983
2043
2066
2026
1933
1858
1831
1883
1964
2029
2064
2043
1979
1895
1843
1871
1942
2027
2083
2090
2023
1934
1866
1863
1938
2039
2133
2167
2128
2059
1984
1947
1977
2064
2131
2160
2125
2031
1933
1872
1879
1947
2021
2070
2055
1977
1886
1816
1811
1875
1970
2055
2078
2031
1939
1859
1821
1851
1921
2001
2064
2058
1983
1899
1847
1859
1927
2000
2064
2073
2023
1936
1854
1820
1855
1922
1988
2035
2038
2015
2007
2071
2233
2454
2693
