1927
2035
2113
2087
1971
1840
1760
1777
1890
2032
2128
2133
2035
1890
1750
1712
1777
1911
2039
2096
2032
1897
1753
1685
1729
1847
1983
2055
2017
1899
1751
1665
1680
1776
1918
2013
2007
1895
1734
1607
1587
1675
1829
1977
2033
1978
1843
1700
1648
1702
1826
1968
2053
2027
1920
1781
1691
1701
1807
1945
2055
2070
1984
1855
1760
1754
1833
1968
2082
2112
2039
1904
1771
1706
1759
1887
2029
2112
2094
1978
1847
1776
1798
1902
2032
2119
2117
2012
1872
1773
1765
1850
1977
2098
2137
2070
1923
1794
1744
1801
1925
2066
2141
2109
1983
1839
1744
1757
1857
1998
2112
2111
2000
1845
1719
1699
1785
1921
2041
2083
1999
1854
1716
1667
1731
1859
2001
2085
2054
1929
1778
1679
1677
1771
1901
1994
1984
1879
1741
1645
1635
1733
1874
1994
2028
1949
1809
1693
1645
1699
1829
1963
2031
1989
1873
1745
1679
1712
1827
1968
2069
2074
1968
1813
1702
1690
1763
1884
1997
2036
1971
1842
1725
1682
1738
1850
1965
2021
1990
1884
1746
1665
1687
1799
1941
2045
2047
1946
1794
1680
1673
1774
1926
2069
2117
2047
1908
1776
1729
1799
1935
2083
2166
2142
2043
1936
1895
1972
2171
2421
2654
2789
2802
2725
2657
2654
2711
2798
2835
2777
2590
2305
2032
1862
1827
1895
2014
2109
2112
2032
1925
1867
1904
2022
2162
2247
2231
2114
1961
1855
1843
1926
2067
2191
2224
2149
2001
1877
1843
1914
2042
2188
2259
2196
2070
1934
1872
1907
2031
2172
2257
2247
2133
1982
1895
1891
1969
2115
2238
2271
2192
2051
1929
1904
1978
2112
2227
2262
2199
2063
1919
1853
1905
2033
2191
2288
2274
2160
2001
1890
1884
1973
2113
2228
2262
2192
2053
1921
1885
1945
2090
2224
2279
2211
2069
1932
1873
1915
2036
2197
2305
2307
2209
2073
1970
1970
2073
2221
2338
2368
2299
2169
2055
2030
2123
2279
2425
2496
2459
2349
2224
2169
2226
2371
2537
2640
2623
2491
2335
2239
2247
2353
2511
2652
2679
2589
2442
2333
2320
2400
2544
2682
2736
2672
2519
2368
2294
2333
2450
2598
2675
2635
2490
2320
2223
2212
2295
2433
2526
2527
2419
2259
2130
2095
2158
2275
2380
2407
2320
2160
1995
1911
1936
2031
2155
2211
2160
2009
1837
1727
1722
1815
1948
2045
2047
1953
1799
1668
1638
1712
1851
1968
2004
1925
1775
1627
1565
1614
1738
1879
1943
1895
1761
1611
1511
1525
1637
1789
1899
1904
1816
1674
1558
1530
1616
1769
1909
1965
1906
1770
1619
1552
1589
1711
1856
1961
1957
1866
1743
1651
1661
1751
1889
1981
1971
1866
1730
1661
1690
1811
1968
2106
2128
2034
1872
1727
1658
1700
1822
1955
2023
1981
1856
1703
1620
1646
1753
1904
2010
2001
1887
1719
1600
1584
1667
1809
1937
1986
1919
1780
1642
1583
1621
1742
1876
1953
1922
1809
1676
1600
1642
1763
1915
2006
1985
1879
1742
1649
1655
1755
1894
1995
2001
1907
1763
1634
1605
1699
1855
1995
2059
1990
1841
1680
1606
1664
1799
1963
2073
2081
1984
1840
1735
1717
1808
1946
2073
2091
1998
1858
1759
1753
1845
1991
2138
2189
2125
1987
1856
1801
1854
1991
2160
2270
2279
2198
2079
1984
1980
2078
2223
2342
2368
2287
2142
2013
1977
2031
2144
2253
2304
2256
2128
1974
1905
1959
2093
2233
2318
2311
2218
2082
1975
1957
2039
2169
2275
2287
2190
2047
1933
1902
1974
2118
2271
2351
2309
2183
2023
1920
1916
2005
2160
2253
2235
2113
1946
1830
1810
1901
2046
2174
2211
2133
1967
1808
1744
1806
1943
2087
2148
2093
1952
1803
1722
1744
1851
1988
2080
2064
1950
1807
1712
1710
1788
1921
2019
2036
1955
1797
1669
1637
1693
1807
1923
1954
1867
1687
1519
1434
1463
1585
1744
1865
1872
1783
1638
1535
1564
1675
1839
1963
1985
1904
1759
1630
1590
1661
1808
1951
2007
1947
1819
1681
1622
1664
1791
1921
1991
1959
1845
1701
1616
1635
1751
1920
2055
2093
2000
1861
1739
1697
1762
1914
2086
2173
2137
2011
1871
1777
1787
1896
2064
2193
2225
2151
2001
1877
1843
1920
2076
2224
2281
2243
2180
2163
2255
2438
2666
2853
2928
2851
2671
2449
2295
2230
2229
2238
2187
2054
1851
1662
1556
1590
1738
1943
2124
2191
2127
1968
1825
1776
1840
1958
2070
2105
2033
1904
1778
1726
1775
1893
2030
2102
2064
1932
1785
1713
1745
1870
2033
2174
2197
2119
1954
1837
1827
1919
2059
2162
2197
2131
1995
1859
1818
1886
2015
2153
2208
2151
2010
1856
1758
1776
1887
2043
2166
2174
2069
1910
1782
1765
1863
2013
2167
2231
2182
2037
1899
1839
1886
2009
2151
2210
2176
2059
1913
1850
1899
2032
2194
2301
2294
2174
1987
1868
1859
1961
2128
2272
2320
2267
2160
2057
2027
2097
2224
2351
2402
2347
2205
2061
1985
2032
2162
2314
2413
2402
2301
2166
2078
2068
2150
2285
2397
2416
2336
2191
2054
1996
2065
2199
2367
2475
2464
2364
2234
2159
2175
2271
2402
2481
2454
2335
2175
2057
2064
2181
2330
2450
2483
2390
2215
2047
1973
2017
2129
2240
2274
2198
2043
1872
1776
1779
1879
2011
2096
2069
1935
1767
1628
1590
1657
1776
1873
1887
1795
1653
1506
1442
1492
1607
1724
1775
1719
1600
1476
1434
1479
1602
1749
1846
1843
1743
1586
1471
1469
1574
1727
1840
1849
1747
1607
1489
1465
1534
1664
1789
1851
1807
1680
1558
1518
1587
1728
1891
1987
1982
1873
1712
1603
1589
1679
1825
1936
1957
1865
1726
1617
1601
1683
1822
1962
2025
1975
1844
1709
1650
1697
1823
1968
2065
2046
1940
1792
1687
1683
1788
1935
2037
2054
1968
1831
1728
1725
1815
1959
2085
2132
2074
1933
1784
1718
1759
1855
1970
2039
2022
1907
1744
1627
1621
1728
1890
2017
2055
1979
1847
1739
1714
1776
1904
2027
2079
2016
1887
1751
1701
1753
1889
2061
2159
2147
2032
1888
1795
1815
1923
2069
2161
2165
2077
1943
1850
1840
1920
2064
2186
2224
2135
1983
1835
1763
1794
1906
2064
2151
2125
2000
1854
1744
1735
1839
1971
2079
2088
1994
1853
1742
1726
1814
1951
2077
2121
2064
1937
1809
1754
1808
1942
2086
2154
2105
1966
1814
1729
1749
1853
1987
2083
2069
1941
1778
1655
1631
1712
1860
2000
2064
2009
1878
1733
1670
1726
1846
1959
2023
1975
1841
1695
1607
1637
1755
1902
1999
1995
1873
1710
1586
1571
1661
1805
1933
1970
1894
1748
1618
1584
1649
1783
1934
2026
2000
1873
1712
1609
1610
1703
1841
1929
1917
1798
1633
1517
1520
1631
1789
1921
1962
1887
1743
1607
1563
1627
1773
1936
2027
1995
1856
1696
1601
1631
1751
1905
2015
2021
1927
1779
1674
1663
1755
1898
2002
2022
1922
1745
1587
1520
1583
1719
1861
1936
1889
1763
1611
1511
1520
1621
1765
1859
1845
1723
1567
1463
1471
1585
1742
1867
1905
1840
1699
1567
1515
1584
1721
1857
1919
1875
1745
1605
1553
1609
1761
1952
2111
2188
2177
2129
2126
2203
2361
2543
2681
2687
2537
2300
2062
1890
1811
1794
1809
1776
1662
1489
1351
1297
1381
1555
1754
1885
1885
1762
1593
1462
1441
1518
1653
1776
1806
1712
1555
1409
1366
1452
1603
1747
1817
1771
1644
1493
1412
1441
1535
1700
1809
1818
1711
1552
1430
1439
1573
1729
1855
1898
1819
1678
1554
1519
1600
1750
1918
2004
1963
1840
1712
1633
1661
1762
1899
1978
1953
1837
1679
1582
1587
1702
1867
1986
2013
1919
1751
1625
1599
1673
1811
1950
2003
1957
1825
1694
1627
1667
1795
1943
2047
2026
1904
1743
1636
1631
1727
1882
2015
2047
1956
1808
1684
1648
1735
1904
2060
2115
2047
1910
1775
1713
1762
1904
2077
2176
2175
2079
1951
1872
1883
1985
2134
2249
2275
2191
2045
1927
1904
1983
2123
2250
2288
2240
2117
1988
1934
1975
2098
2238
2326
2314
2197
2045
1951
1967
2095
2252
2365
2378
2277
2111
1961
1911
1971
2096
2210
2240
2160
2002
1859
1795
1839
1939
2064
2129
2081
1931
1754
1636
1622
1710
1829
1914
1907
1797
1621
1475
1425
1488
1631
1761
1808
1730
1581
1413
1344
1394
1520
1675
1771
1752
1635
1475
1369
1371
1479
1648
1777
1808
1733
1609
1509
1497
1584
1711
1828
1861
1790
1648
1507
1459
1523
1669
1821
1898
1865
1735
1590
1511
1553
1675
1833
1939
1954
1861
1708
1589
1566
1649
1789
1915
1946
1869
1717
1584
1523
1583
1715
1859
1952
1934
1830
1691
1611
1625
1710
1840
1923
1911
1810
1669
1557
1535
1645
1796
1946
2006
1936
1774
1623
1575
1627
1755
1910
2000
1969
1847
1712
1623
1636
1733
1873
1971
1969
1868
1719
1618
1614
1714
1871
2003
2042
1957
1803
1650
1598
1663
1808
1954
2025
1978
1831
1673
1598
1622
1741
1890
1987
1994
1879
1734
1618
1605
1706
1857
1984
2019
1935
1783
1649
1607
1674
1808
1938
2001
1975
1845
1712
1642
1678
1792
1933
2023
2010
1898
1738
1619
1616
1721
1883
2022
2059
1968
1820
1675
1623
1684
1821
1962
2030
1985
1870
1721
1642
1680
1814
1981
2086
2071
1947
1777
1649
1643
1751
1918
2061
2097
2011
1858
1732
1708
1790
1939
2087
2158
2112
1993
1869
1810
1853
1973
2123
2217
2201
2098
1966
1890
1915
2031
2191
2314
2335
2240
2090
1950
1915
1984
2124
2259
2321
2271
2143
2005
1957
2014
2155
2307
2403
2381
2243
2055
1923
1918
2017
2178
2310
2355
2285
2147
2017
1971
2032
2175
2310
2368
2309
2181
2057
2003
2069
2208
2370
2476
2467
2367
2220
2119
2115
2211
2352
2467
2497
2413
2256
2114
2055
2109
2246
2399
2465
2413
2270
2115
2037
2087
2207
2342
2416
2385
2271
2123
2018
2021
2123
2270
2387
2402
2305
2153
2011
1969
2035
2171
2289
2331
2262
2131
2006
1975
2053
2199
2370
2476
2453
2338
2209
2154
2191
2317
2502
2694
2832
2893
2896
2907
2959
3061
3197
3289
3266
3098
2838
2553
2325
2214
2199
2231
2228
2160
2039
1926
1890
1965
2118
2288
2381
2368
2246
2077
1945
1922
2000
2144
2271
2319
2256
2123
1985
1920
1974
2123
2279
2366
2325
2186
2017
1919
1947
2064
2207
2311
2319
2224
2080
1968
1953
2046
2207
2347
2383
2303
2163
2033
1986
2038
2162
2305
2386
2358
2229
2070
1975
1995
2102
2241
2345
2363
2272
2134
2027
2007
2096
2231
2355
2401
2334
2194
2063
2007
2075
2213
2359
2438
2405
2295
2160
2078
2091
2193
2351
2455
2459
2363
2215
2109
2102
2192
2337
2474
2512
2434
2277
2127
2067
2126
2250
2384
2460
2432
2313
2175
2096
2123
2235
2390
2498
2511
2404
2256
2148
2143
2235
2377
2499
2535
2450
2306
2163
2099
2148
2265
2384
2435
2394
2283
2157
2103
2149
2251
2370
2441
2407
2288
2124
2001
1994
2095
2240
2352
2370
2271
2105
1937
1856
1886
1968
2064
2102
2046
1910
1756
1669
1690
1791
1921
2003
1975
1840
1651
1511
1487
1566
1703
1813
1821
1712
1530
1382
1319
1356
1459
1599
1679
1648
1525
1391
1315
1354
1469
1609
1692
1680
1579
1449
1375
1401
1513
1667
1779
1792
1686
1517
1369
1329
1408
1563
1702
1774
1727
1594
1445
1371
1410
1552
1714
1819
1809
1699
1535
1424
1411
1495
1635
1745
1779
1711
1571
1435
1391
1451
1586
1724
1775
1713
1567
1395
1295
1310
1424
1583
1699
1695
1595
1445
1360
1379
1498
1652
1777
1789
1678
1498
1349
1298
1377
1535
1697
1762
1695
1554
1411
1357
1405
1522
1665
1741
1705
1581
1423
1325
1334
1451
1615
1741
1759
1679
1535
1435
1419
1499
1645
1779
1845
1786
1637
1494
1443
1504
1648
1795
1872
1828
1706
1569
1486
1523
1663
1824
1936
1957
1867
1713
1600
1578
1650
1778
1909
1968
1904
1775
1638
1579
1626
1751
1904
1994
1967
1840
1679
1586
1622
1759
1939
2079
2099
2000
1843
1712
1675
1733
1851
1961
1991
1910
1775
1643
1590
1647
1767
1905
1985
1956
1813
1642
1526
1535
1664
1809
1909
1915
1822
1680
1571
1566
1655
1791
1917
1974
1920
1791
1669
1631
1699
1845
1997
2090
2066
1940
1792
1702
1729
1856
2019
2155
2177
2086
1936
1822
1796
1872
2010
2151
2199
2131
2003
1892
1859
1930
2074
2229
2310
2261
2117
1952
1865
1889
1997
2160
2267
2274
2175
2021
1901
1883
1974
2128
2262
2309
2239
2087
1934
1872
1925
2039
2176
2259
2233
2109
1933
1818
1817
1911
2043
2128
2112
1990
1852
1766
1782
1900
2060
2177
2210
2121
1957
1811
1761
1824
1968
2140
2225
2193
2064
1903
1801
1805
1904
2058
2165
2163
2077
1937
1848
1852
1959
2114
2236
2267
2185
2037
1927
1911
2018
2224
2451
2639
2720
2719
2666
2640
2685
2788
2905
2957
2880
2685
2425
2199
2067
2038
2105
2166
2166
2103
2019
1967
1984
2095
2253
2400
2452
2389
2225
2043
1936
1971
2112
2286
2400
2402
2292
2134
2017
2006
2105
2246
2364
2375
2288
2127
1983
1931
1994
2131
2275
2351
2305
2176
2025
1951
1997
2121
2272
2368
2361
2259
2117
2005
1990
2080
2225
2354
2402
2339
2207
2085
2058
2129
2272
2405
2458
2395
2256
2103
2017
2045
2160
2321
2443
2450
2342
2192
2103
2122
2228
2384
2509
2529
2432
2288
2157
2113
2178
2309
2439
2501
2454
2320
2190
2128
2164
2271
2396
2480
2459
2343
2192
2098
2119
2232
2389
2522
2553
2459
2302
2161
2118
2182
2322
2462
2523
2474
2343
2205
2143
2187
2317
2470
2558
2542
2442
2303
2215
2224
2333
2480
2601
2621
2527
2383
2251
2202
2261
2393
2535
2607
2553
2438
2319
2256
2295
2407
2530
2588
2541
2402
2240
2144
2137
2218
2333
2416
2411
2293
2128
1983
1931
1978
2089
2181
2204
2124
1970
1813
1734
1755
1847
1958
2023
1979
1861
1707
1602
1610
1713
1867
1975
1979
1857
1694
1556
1520
1601
1749
1897
1951
1886
1746
1614
1565
1609
1733
1866
1915
1862
1742
1621
1566
1603
1725
1872
1971
1980
1872
1729
1617
1616
1717
1870
1991
2032
1974
1858
1738
1691
1747
1865
1990
2064
2015
1887
1738
1651
1669
1767
1910
2016
2029
1934
1783
1669
1664
1762
1907
2037
2078
1989
1840
1690
1642
1706
1840
1983
2047
1996
1870
1732
1658
1680
1790
1937
2047
2064
1967
1818
1712
1706
1789
1922
2031
2054
1973
1840
1712
1661
1709
1823
1954
2021
1968
1830
1671
1581
1598
1709
1859
1978
1987
1887
1734
1618
1589
1664
1794
1904
1921
1837
1686
1568
1535
1615
1759
1913
1987
1955
1844
1716
1633
1658
1771
1915
2029
2032
1920
1745
1630
1631
1734
1894
2022
2065
2000
1871
1744
1713
1791
1924
2064
2126
2077
1936
1795
1721
1750
1858
1993
2095
2096
1998
1863
1776
1791
1902
2043
2160
2177
2082
1917
1776
1731
1802
1936
2078
2147
2110
1983
1850
1787
1830
1964
2119
2218
2197
2087
1936
1839
1842
1942
2098
2237
2276
2198
2055
1922
1883
1948
2078
2192
2234
2171
2023
1887
1809
1855
1996
2173
2278
2257
2142
2001
1916
1919
2021
2170
2288
2306
2223
2085
1963
1933
2013
2171
2310
2367
2320
2185
2032
1955
1989
2112
2256
2350
2325
2199
2057
1957
1961
2065
2215
2325
2347
2256
2119
1982
1931
1987
2116
2242
2294
2229
2090
1930
1842
1856
1956
2083
2159
2128
2003
1849
1744
1751
1856
2000
2110
2112
1995
1819
1671
1631
1701
1845
1990
2070
2001
1858
1699
1611
1637
1751
1879
1959
1936
1839
1707
1625
1631
1738
1883
1987
1985
1873
1712
1599
1607
1733
1921
2103
2225
2261
2270
2272
2336
2463
2620
2753
2799
2705
2505
2269
2073
1953
1921
1951
1968
1919
1794
1648
1568
1611
1738
1922
2082
2131
2047
1891
1732
1661
1712
1841
1986
2055
2002
1867
1707
1600
1605
1707
1859
1981
1990
1902
1757
1644
1629
1713
1856
1984
2031
1948
1792
1657
1602
1657
1787
1936
2018
1985
1855
1701
1607
1623
1728
1863
1965
1968
1867
1719
1600
1583
1666
1814
1937
1968
1879
1739
1612
1578
1650
1803
1957
2026
1977
1840
1680
1584
1601
1712
1869
1988
2014
1933
1806
1723
1733
1831
1978
2107
2143
2057
1904
1767
1715
1782
1917
2066
2155
2128
2019
1888
1797
1817
1933
2096
2200
2203
2109
1973
1883
1893
1995
2151
2287
2331
2263
2127
2002
1978
2064
2203
2343
2421
2394
2288
2158
2095
2133
2256
2416
2533
2550
2459
2325
2212
2181
2249
2369
2469
2481
2390
2235
2096
2037
2096
2210
2323
2368
2303
2149
1981
1882
1891
1985
2125
2203
2179
2046
1863
1718
1673
1735
1866
1970
1986
1883
1723
1589
1535
1606
1717
1826
1856
1774
1612
1437
1357
1398
1520
1673
1762
1733
1611
1454
1344
1339
1434
1579
1698
1722
1647
1507
1394
1376
1457
1601
1739
1805
1762
1635
1491
1429
1467
1575
1699
1775
1757
1649
1505
1414
1430
1567
1745
1893
1937
1855
1690
1535
1506
1584
1731
1870
1932
1871
1728
1579
1488
1518
1637
1776
1857
1834
1735
1613
1535
1559
1666
1826
1943
1967
1872
1725
1606
1600
1706
1872
2022
2090
2022
1881
1741
1678
1743
1881
2039
2141
2125
2003
1856
1747
1741
1829
1969
2086
2106
2015
1872
1761
1746
1819
1937
2047
2091
2010
1856
1709
1667
1733
1871
2031
2128
2099
1971
1807
1695
1680
1764
1895
1995
1997
1909
1767
1645
1611
1685
1824
1946
1991
1931
1805
1675
1606
1634
1744
1879
1971
1958
1841
1697
1600
1611
1715
1869
1986
2000
1902
1744
1645
1635
1728
1867
1986
2020
1948
1815
1691
1658
1743
1893
2061
2155
2138
2014
1840
1712
1687
1754
1872
1954
1943
1855
1736
1648
1647
1728
1871
2001
2032
1958
1826
1682
1601
1637
1747
1885
1955
1931
1825
1690
1607
1631
1735
1875
1971
1988
1892
1743
1628
1621
1727
1877
2002
2055
1983
1849
1731
1697
1755
1879
2010
2079
2028
1907
1755
1654
1665
1775
1935
2075
2109
2025
1881
1766
1752
1829
1966
2109
2161
2096
1957
1855
1833
1920
2067
2208
2273
2237
2130
1991
1909
1935
2038
2176
2273
2285
2206
2079
1973
1950
2029
2161
2270
2284
2173
2000
1863
1825
1901
2039
2183
2246
2189
2039
1883
1792
1808
1914
2065
2163
2169
2085
1933
1807
1776
1863
2017
2154
2193
2113
1983
1861
1803
1845
1964
2113
2192
2164
2042
1890
1798
1850
1991
2170
2282
2283
2170
2003
1899
1906
2029
2217
2372
2452
2448
2394
2379
2455
2640
2873
3066
3151
3065
2875
2645
2480
2406
2395
2404
2369
2262
2090
1898
1798
1831
1979
2178
2339
2389
2320
2191
2068
2019
2071
2175
2283
2320
2256
2121
1967
1875
1901
2021
2186
2290
2295
2199
2069
1984
1997
2093
2224
2333
2352
2242
2059
1902
1862
1936
2066
2190
2240
2190
2062
1906
1821
1840
1935
2059
2120
2082
1945
1794
1701
1718
1845
2002
2119
2128
2025
1866
1744
1732
1840
2002
2141
2183
2109
1961
1823
1746
1783
1899
2043
2133
2119
2005
1871
1789
1802
1903
2031
2126
2117
2015
1874
1767
1761
1866
2031
2180
2231
2159
2003
1854
1783
1825
1952
2115
2224
2221
2128
2000
1925
1942
2047
2192
2293
2309
2224
2078
1958
1941
2045
2211
2368
2423
2352
2203
2064
1999
2059
2192
2353
2449
2427
2302
2146
2039
2054
2165
2315
2425
2428
2314
2144
2006
1963
2025
2147
2273
2334
2303
2192
2067
1997
2025
2119
2225
2270
2209
2053
1865
1745
1735
1815
1937
2029
2013
1888
1712
1568
1533
1616
1758
1871
1899
1813
1655
1490
1409
1449
1583
1727
1799
1759
1620
1453
1360
1382
1507
1680
1795
1808
1707
1535
1423
1422
1535
1711
1853
1883
1783
1610
1462
1396
1456
1593
1745
1833
1808
1693
1559
1476
1505
1631
1791
1904
1915
1814
1663
1535
1520
1609
1745
1871
1904
1831
1695
1579
1535
1629
1775
1917
1983
1924
1779
1623
1535
1571
1695
1847
1950
1949
1843
1703
1578
1580
1673
1821
1946
1991
1931
1797
1659
1602
1654
1765
1869
1915
1855
1711
1554
1469
1489
1600
1744
1843
1835
1717
1577
1489
1506
1615
1760
1865
1871
1769
1607
1456
1404
1489
1675
1866
1971
1942
1798
1626
1531
1571
1694
1841
1943
1947
1853
1717
1632
1632
1719
1855
1948
1934
1810
1659
1535
1529
1631
1786
1926
1987
1938
1808
1669
1616
1689
1843
2023
2131
2109
1977
1820
1694
1649
1712
1833
1939
1982
1926
1814
1727
1709
1776
1901
2026
2087
2026
1881
1743
1666
1698
1823
1990
2128
2143
2047
1903
1793
1786
1879
2017
2131
2143
2041
1895
1791
1801
1897
2038
2176
2219
2149
2024
1923
1894
1952
2082
2230
2327
2301
2156
1970
1856
1859
1962
2123
2243
2259
2164
1987
1840
1792
1843
1979
2103
2176
2147
2047
1955
1922
1975
2108
2257
2350
2309
2162
1983
1874
1881
1983
2126
2223
2215
2111
1967
1867
1858
1939
2081
2213
2256
2180
2032
1887
1836
1891
2022
2176
2271
2256
2139
1995
1900
1907
2002
2144
2235
2227
2128
1998
1913
1921
2021
2179
2320
2358
2269
2101
1930
1856
1889
1998
2140
2215
2186
2064
1892
1782
1787
1887
2014
2106
2109
2009
1856
1742
1713
1806
1924
2027
2059
1983
1851
1725
1669
1711
1825
1958
2020
1979
1854
1711
1621
1631
1724
1862
1984
2013
1932
1789
1668
1639
1712
1842
1973
2031
1974
1887
1869
1965
2195
2487
2749
2879
2831
2663
2448
2277
2192
2178
2179
2118
1958
1763
1535
1399
1386
1495
1662
1809
1875
1818
1674
1519
1431
1450
1535
1669
1738
1684
1555
1415
1347
1376
1487
1649
1754
1755
1658
1501
1381
1360
1426
1535
1630
1641
1581
1457
1359
1339
1420
1584
1749
1835
1786
1642
1471
1367
1380
1483
1632
1739
1744
1655
1517
1426
1439
1535
1703
1839
1882
1802
1661
1525
1479
1520
1615
1725
1767
1710
1584
1487
1473
1562
1696
1842
1917
1886
1783
1637
1520
1499
1568
1697
1808
1839
1770
1647
1529
1520
1616
1767
1898
1953
1904
1774
1648
1588
1616
1717
1829
1885
1846
1741
1613
1535
1600
1751
1936
2073
2095
1984
1808
1660
1602
1664
1797
1922
1970
1930
1822
1727
1722
1830
1995
2157
2230
2192
2063
1895
1807
1841
1957
2098
2190
2181
2080
1951
1881
1909
2009
2141
2250
2267
2178
2027
1882
1837
1877
1977
2089
2139
2094
1951
1786
1684
1669
1735
1824
1873
1831
1687
1535
1452
1452
1525
1647
1775
1820
1740
1578
1398
1296
1312
1403
1515
1575
1534
1413
1293
1242
1290
1411
1563
1659
1645
1520
1359
1239
1222
1311
1472
1622
1686
1664
1568
1483
1488
1590
1746
1899
1942
1881
1741
1595
1521
1571
1683
1809
1862
1831
1728
1594
1530
1586
1705
1830
1902
1881
1791
1669
1583
1598
1717
1889
2027
2059
1971
1828
1712
1703
1795
1936
2089
2150
2121
2000
1859
1765
1776
1889
2047
2160
2182
2096
1955
1841
1808
1874
2013
2147
2204
2160
2021
1904
1856
1903
2007
2128
2190
2166
2067
1924
1810
1795
1880
2000
2099
2119
2063
1967
1904
1921
2032
2177
2301
2352
2305
2195
2078
2023
2062
2161
2282
2350
2323
2215
2070
1966
1959
2047
2187
2288
2304
2227
2097
1990
1972
2038
2153
2259
2316
2279
2177
2066
2005
2037
2150
2289
2378
2354
2240
2096
2000
2025
2143
2288
2391
2403
2297
2133
1988
1941
2009
2145
2270
2320
2271
2147
2021
1968
2013
2128
2261
2340
2308
2191
2034
1936
1949
2053
2193
2310
2323
2230
2085
1966
1936
2013
2157
2290
2352
2318
2209
2101
2064
2125
2254
2408
2501
2476
2326
2119
1983
1975
2095
2267
2402
2407
2295
2126
1984
1955
2027
2160
2274
2307
2224
2067
1917
1855
1905
2034
2192
2283
2251
2114
1949
1847
1862
1972
2127
2233
2239
2138
1984
1855
1831
1925
2105
2270
2343
2302
2178
2034
1953
1973
2098
2251
2357
2364
2273
2135
2035
2042
2134
2262
2352
2341
2231
2083
1968
1951
2037
2176
2293
2321
2228
2074
1919
1852
1901
2029
2171
2254
2226
2101
1942
1845
1850
1956
2118
2240
2261
2170
2019
1915
1902
1986
2137
2263
2283
2192
2042
1907
1850
1883
1989
2128
2204
2177
2064
1922
1855
1904
2054
2256
2425
2481
2446
2394
2400
2509
2719
2958
3152
3215
3114
2897
2662
2473
2415
2427
2429
2371
2244
2068
1887
1803
1850
1984
2170
2340
2403
2321
2174
2054
2017
2091
2219
2335
2363
2262
2095
1920
1847
1878
2000
2160
2255
2243
2153
2031
1957
1987
2111
2257
2367
2370
2272
2127
2001
1982
2063
2194
2319
2371
2319
2192
2064
2010
2073
2204
2351
2441
2423
2311
2191
2112
2159
2303
2482
2595
2597
2471
2320
2231
2239
2320
2454
2559
2589
2497
2353
2240
2207
2266
2382
2518
2613
2592
2469
2327
2243
2281
2403
2555
2672
2672
2559
2384
2253
2227
2317
2461
2591
2666
2618
2487
2357
2302
2349
2471
2614
2685
2643
2515
2353
2253
2256
2358
2503
2624
2640
2541
2399
2294
2288
2371
2512
2625
2640
2549
2406
2286
2259
2341
2475
2607
2657
2603
2483
2355
2281
2286
2348
2431
2467
2409
2263
2094
1967
1957
2067
2222
2327
2349
2246
2090
1936
1873
1921
2044
2162
2192
2111
1937
1754
1634
1626
1712
1845
1922
1883
1741
1558
1427
1410
1502
1645
1745
1763
1665
1503
1359
1317
1389
1520
1654
1695
1616
1459
1289
1215
1248
1359
1495
1583
1578
1479
1339
1243
1237
1327
1462
1583
1610
1530
1391
1261
1207
1267
1404
1535
1619
1579
1447
1311
1243
1296
1426
1589
1680
1667
1535
1397
1293
1308
1407
1553
1663
1666
1578
1436
1333
1322
1408
1557
1695
1763
1727
1599
1440
1373
1414
1527
1680
1761
1729
1598
1437
1348
1367
1488
1661
1789
1808
1710
1535
1431
1430
1535
1700
1847
1913
1840
1713
1571
1508
1582
1719
1862
1938
1904
1787
1653
1584
1607
1715
1859
1965
1967
1856
1691
1535
1519
1597
1725
1852
1905
1847
1697
1535
1467
1514
1648
1809
1904
1891
1781
1632
1525
1515
1613
1767
1904
1937
1858
1712
1600
1590
1684
1833
1951
1981
1904
1767
1639
1584
1653
1799
1943
2019
1984
1866
1731
1649
1664
1769
1904
1985
1979
1878
1728
1621
1619
1714
1860
1984
2000
1902
1757
1648
1611
1693
1842
1998
2087
2058
1933
1776
1699
1729
1860
2019
2127
2122
2007
1872
1786
1792
1887
2018
2127
2149
2071
1932
1795
1744
1808
1931
2054
2105
2047
1911
1749
1665
1703
1825
1981
2095
2102
2000
1861
1763
1770
1872
2018
2150
2184
2103
1943
1815
1760
1810
1929
2047
2102
2061
1951
1833
1770
1801
1904
2025
2090
2057
1933
1782
1680
1678
1765
1910
2047
2096
2021
1879
1747
1712
1776
1903
2033
2093
2023
1877
1725
1645
1680
1805
1942
2033
2034
1935
1787
1694
1712
1828
1971
2083
2108
2032
1904
1801
1803
1918
2133
2387
2596
2679
2652
2559
2503
2513
2577
2641
2639
2507
2267
1956
1706
1593
1602
1691
1787
1831
1801
1723
1649
1645
1712
1826
1947
1989
1906
1755
1610
1535
1584
1705
1843
1936
1920
1811
1680
1600
1613
1716
1865
1989
2015
1923
1779
1670
1649
1723
1863
1994
2039
1972
1838
1695
1639
1694
1831
1973
2064
2033
1914
1745
1625
1618
1717
1869
1984
2002
1915
1769
1651
1633
1719
1871
2000
2042
1969
1840
1707
1645
1697
1837
1999
2102
2090
1964
1808
1712
1727
1837
1995
2123
2153
2079
1932
1820
1799
1895
2059
2211
2288
2246
2122
1988
1926
1963
2082
2224
2314
2298
2193
2065
1989
2022
2146
2294
2394
2399
2294
2137
2015
2000
2100
2258
2411
2475
2415
2261
2109
2031
2079
2204
2347
2423
2409
2315
2187
2110
2119
2217
2359
2475
2480
2386
2249
2156
2159
2245
2384
2496
2517
2427
2273
2129
2067
2122
2241
2368
2435
2384
2246
2089
1978
1984
2083
2209
2281
2243
2087
1882
1726
1679
1741
1859
1957
1965
1856
1680
1510
1434
1462
1584
1716
1792
1756
1629
1485
1409
1442
1579
1734
1839
1839
1739
1597
1488
1478
1578
1719
1845
1872
1787
1637
1494
1459
1535
1691
1847
1923
1879
1759
1625
1561
1600
1726
1880
1985
1981
1871
1717
1612
1603
1707
1872
2015
2045
1949
1791
1662
1618
1680
1803
1925
1987
1947
1828
1697
1619
1659
1795
1957
2064
2046
1930
1773
1657
1655
1774
1931
2047
2080
1983
1822
1675
1627
1698
1840
1984
2065
2042
1935
1802
1723
1746
1855
2000
2099
2083
1954
1789
1668
1654
1736
1873
1974
1983
1899
1770
1665
1648
1743
1894
2033
2096
2032
1896
1750
1681
1727
1841
1959
2021
1997
1889
1758
1676
1691
1797
1946
2075
2099
2000
1855
1728
1707
1793
1943
2085
2141
2073
1932
1792
1728
1777
1904
2055
2153
2137
2026
1888
1803
1813
1909
2047
2158
2182
2099
1951
1831
1808
1891
2042
2193
2267
2225
2111
1985
1934
1970
2087
2222
2289
2244
2113
1955
1861
1880
1993
2157
2277
2290
2194
2039
1914
1883
1947
2072
2194
2247
2192
2055
1903
1840
1887
2010
2159
2247
2230
2126
1991
1909
1927
2032
2176
2269
2274
2190
2055
1939
1926
2011
2162
2299
2351
2287
2144
2003
1953
2010
2141
2286
2363
2340
2225
2081
1991
2014
2127
2259
2352
2347
2235
2089
1981
1974
2063
2195
2325
2382
2334
2219
2107
2070
2135
2269
2416
2499
2459
2315
2150
2059
2070
2174
2315
2414
2413
2304
2155
2030
2000
2075
2209
2338
2370
2305
2176
2041
1991
2060
2192
2327
2385
2327
2196
2034
1942
1968
2087
2223
2317
2330
2241
2106
1994
1987
2077
2205
2319
2350
2275
2143
2034
2002
2079
2227
2378
2439
2391
2267
2139
2093
2149
2300
2494
2688
2801
2833
2822
2819
2871
2983
3127
3230
3214
3024
2747
2467
2250
2148
2128
2147
2133
2063
1954
1862
1838
1918
2067
2234
2337
2320
2206
2039
1923
1911
1999
2130
2246
2271
2194
2060
1925
1873
1933
2063
2196
2262
2210
2070
1916
1833
1857
1971
2127
2224
2209
2103
1950
1853
1850
1947
2099
2224
2247
2137
1965
1818
1763
1808
1929
2069
2135
2096
1954
1795
1702
1724
1839
1984
2093
2094
1987
1840
1734
1738
1843
1998
2125
2154
2068
1936
1820
1787
1853
1972
2099
2160
2114
1987
1866
1819
1870
1987
2128
2225
2218
2122
1990
1901
1925
2045
2205
2320
2336
2239
2087
1954
1934
2011
2154
2284
2331
2279
2155
2025
1981
2037
2175
2320
2399
2362
2224
2065
1981
2004
2123
2267
2373
2373
2277
2133
2032
2032
2128
2277
2416
2470
2414
2275
2129
2093
2128
2251
2396
2478
2451
2346
2207
2117
2128
2219
2334
2403
2371
2247
2081
1953
1926
1995
2126
2240
2267
2179
2026
1886
1814
1823
1902
1998
2046
1999
1861
1687
1581
1572
1664
1792
1885
1885
1779
1624
1492
1461
1535
1690
1825
1859
1776
1631
1490
1428
1476
1613
1761
1847
1808
1679
1526
1441
1457
1583
1731
1827
1837
1750
1625
1535
1535
1639
1771
1886
1923
1846
1699
1557
1501
1567
1693
1825
1892
1857
1744
1615
1535
1587
1706
1856
1962
1959
1845
1684
1562
1531
1605
1739
1860
1899
1817
1679
1535
1487
1553
1694
1840
1909
1870
1738
1584
1491
1535
1663
1833
1935
1945
1834
1670
1535
1531
1616
1771
1890
1915
1826
1675
1535
1502
1580
1712
1853
1920
1875
1744
1584
1489
1517
1633
1776
1872
1866
1759
1611
1505
1497
1600
1743
1853
1862
1776
1633
1503
1456
1523
1663
1799
1874
1833
1701
1535
1442
1455
1535
1665
1727
1683
1535
1360
1233
1211
1294
1435
1566
1594
1489
1344
1227
1195
1266
1403
1530
1599
1557
1436
1303
1232
1277
1398
1555
1648
1618
1493
1338
1221
1211
1295
1426
1535
1571
1479
1333
1200
1155
1222
1360
1488
1535
1490
1366
1227
1163
1210
1335
1478
1563
1535
1418
1249
1127
1111
1205
1354
1472
1491
1407
1271
1152
1117
1189
1347
1505
1575
1515
1381
1238
1171
1221
1354
1494
1575
1535
1433
1296
1215
1238
1350
1517
1645
1675
1595
1452
1343
1345
1456
1617
1753
1813
1759
1633
1490
1423
1479
1607
1763
1872
1871
1775
1649
1569
1579
1671
1795
1883
1882
1787
1639
1515
1492
1585
1735
1872
1925
1866
1723
1586
1525
1583
1702
1841
1923
1905
1808
1681
1605
1645
1773
1936
2059
2066
1971
1823
1709
1680
1755
1887
2006
2047
1971
1830
1694
1649
1718
1856
1999
2077
2032
1904
1776
1719
1777
1923
2117
2286
2381
2405
2407
2430
2496
2615
2747
2823
2783
2621
2377
2137
1959
1873
1871
1909
1917
1840
1715
1607
1582
1665
1842
2043
2173
2176
2045
1871
1739
1713
1796
1936
2074
2118
2062
1921
1798
1757
1828
1968
2108
2172
2133
2001
1871
1808
1841
1963
2123
2240
2256
2161
2015
1925
1931
2033
2191
2311
2336
2247
2103
1967
1917
1991
2147
2299
2368
2329
2192
2046
1977
2003
2112
2247
2327
2320
2223
2082
1981
1979
2090
2255
2377
2395
2301
2143
2002
1961
2032
2173
2308
2375
2327
2199
2065
2001
2043
2160
2297
2378
2363
2261
2128
2039
2055
2157
2316
2441
2457
2347
2160
1999
1946
2015
2167
2322
2407
2365
2236
2097
2011
2046
2161
2305
2411
2399
2278
2128
2025
2033
2141
2283
2402
2423
2339
2214
2114
2093
2166
2302
2431
2480
2418
2275
2118
2038
2070
2185
2327
2416
2404
2289
2126
2001
1989
2084
2219
2329
2352
2256
2108
1989
1955
2002
2102
2191
2201
2112
1941
1791
1719
1745
1852
1971
2034
1999
1872
1712
1598
1583
1660
1791
1895
1901
1789
1619
1482
1446
1518
1645
1755
1796
1719
1571
1427
1364
1413
1555
1709
1794
1761
1636
1479
1392
1410
1527
1686
1794
1807
1712
1578
1474
1469
1571
1721
1859
1910
1856
1725
1593
1526
1584
1709
1858
1943
1924
1811
1678
1587
1607
1725
1872
1984
1987
1877
1726
1622
1622
1721
1873
2003
2039
1968
1809
1663
1600
1664
1806
1955
2038
2022
1878
1739
1658
1682
1794
1936
2034
2047
1954
1803
1689
1674
1759
1911
2056
2102
2031
1886
1751
1698
1753
1878
2015
2082
2026
1904
1751
1663
1692
1805
1943
2036
2029
1911
1767
1687
1703
1817
1981
2112
2149
2064
1903
1749
1674
1713
1834
1967
2045
2007
1883
1744
1676
1722
1847
2000
2112
2103
1999
1856
1758
1763
1857
2003
2142
2176
2096
1941
1805
1750
1809
1936
2081
2147
2110
1983
1842
1771
1803
1911
2041
2121
2101
1999
1866
1774
1780
1885
2035
2160
2178
2102
1941
1804
1743
1794
1921
2061
2127
2089
1972
1855
1811
1872
2000
2149
2240
2226
2121
1971
1872
1872
1968
2106
2217
2227
2130
1968
1831
1791
1847
1977
2110
2161
2112
1978
1843
1778
1820
1931
2082
2177
2182
2090
1951
1851
1842
1932
2075
2181
2206
2129
1983
1855
1815
1893
2034
2191
2254
2202
2071
1932
1872
1915
2023
2160
2240
2224
2103
1949
1859
1871
1975
2128
2251
2277
2193
2039
1908
1873
1947
2089
2207
2240
2165
2019
1888
1839
1885
2017
2162
2240
2202
2067
1901
1790
1782
1875
2017
2128
2129
2018
1863
1729
1696
1775
1911
2032
2070
1995
1863
1730
1676
1711
1809
1940
2023
2000
1893
1757
1678
1709
1828
1983
2096
2109
2014
1872
1760
1734
1808
1929
2054
2096
2047
1923
1799
1759
1815
1949
2105
2211
2221
2150
2064
2043
2161
2394
2676
2906
3006
2955
2807
2666
2582
2559
2608
2617
2515
2302
2026
1774
1637
1663
1802
1979
2099
2111
2021
1901
1819
1835
1934
2067
2154
2149
2047
1905
1793
1773
1856
2000
2134
2190
2131
1993
1861
1815
1878
2015
2162
2238
2198
2066
1909
1822
1839
1945
2071
2151
2139
2031
1895
1792
1787
1869
2004
2127
2167
2095
1946
1806
1751
1807
1922
2063
2123
2071
1934
1789
1722
1760
1873
2015
2107
2097
1975
1809
1699
1702
1818
1989
2139
2195
2134
1989
1851
1793
1843
1971
2127
2189
2127
1978
1831
1763
1821
1957
2125
2235
2242
2153
2012
1912
1900
1984
2138
2263
2309
2243
2116
2006
1983
2064
2205
2352
2429
2391
2276
2141
2071
2107
2222
2368
2475
2470
2374
2237
2144
2153
2241
2386
2511
2546
2474
2320
2209
2176
2256
2399
2548
2602
2544
2414
2263
2183
2219
2327
2455
2544
2532
2425
2275
2160
2147
2231
2370
2486
2496
2384
2214
2060
1987
2037
2158
2257
2283
2192
2021
1845
1744
1762
1878
2015
2093
2060
1927
1763
1648
1627
1705
1829
1920
1927
1829
1679
1568
1535
1629
1751
1861
1898
1834
1693
1554
1488
1533
1664
1808
1887
1856
1723
1558
1453
1466
1574
1710
1808
1819
1722
1572
1439
1393
1472
1621
1776
1856
1836
1723
1601
1535
1589
1710
1838
1906
1878
1770
1625
1535
1581
1683
1829
1935
1937
1850
1711
1602
1585
1668
1807
1936
1990
1938
1815
1682
1616
1653
1776
1921
2003
1978
1856
1703
1607
1630
1734
1889
1998
2003
1904
1759
1641
1628
1723
1867
1995
2057
2000
1872
1747
1694
1745
1872
2017
2096
2065
1943
1797
1703
1712
1827
1977
2086
2087
1990
1858
1753
1730
1805
1931
2046
2082
2000
1863
1739
1689
1744
1872
2011
2094
2058
1934
1787
1712
1737
1839
1971
2067
2055
1938
1782
1686
1694
1798
1953
2087
2113
2014
1857
1717
1682
1751
1886
2027
2097
2057
1927
1782
1706
1733
1857
2004
2106
2094
1975
1831
1715
1712
1807
1950
2060
2068
1970
1826
1708
1680
1762
1917
2063
2137
2101
1979
1841
1765
1791
1897
2032
2131
2129
2016
1858
1747
1747
1847
2002
2139
2192
2118
1968
1825
1765
1813
1936
2081
2160
2127
2001
1872
1805
1837
1947
2105
2205
2207
2106
1962
1860
1860
1943
2095
2205
2224
2119
1949
1823
1794
1872
2011
2158
2224
2171
2045
1921
1859
1887
1983
2119
2192
2161
2051
1911
1830
1841
1943
2082
2183
2192
2093
1936
1808
1791
1883
2027
2165
2213
2145
2000
1863
1805
1851
1957
2087
2160
2130
2014
1870
1778
1789
1891
2033
2154
2173
2081
1919
1791
1754
1831
1971
2113
2176
2125
2000
1877
1827
1877
1989
2121
2187
2158
2031
1877
1775
1762
1846
1977
2101
2134
2060
1904
1773
1731
1791
1910
2034
2101
2067
1941
1802
1732
1775
1896
2032
2125
2097
1982
1845
1771
1782
1885
2032
2140
2142
2042
1889
1763
1734
1812
1954
2101
2160
2097
1953
1818
1767
1825
1955
2114
2213
2191
2096
1978
1935
1991
2153
2368
2581
2724
2755
2704
2640
2637
2697
2781
2819
2757
2559
2301
2019
1815
1747
1792
1883
1939
1934
1851
1743
1695
1740
1856
1999
2101
2094
1968
1795
1682
1680
1781
1918
2019
2032
1943
1798
1665
1616
1686
1840
1996
2077
2033
1904
1747
1649
1664
1771
1917
2026
2046
1967
1831
1729
1726
1836
1997
2137
2175
2082
1917
1776
1733
1807
1953
2119
2202
2160
2027
1885
1808
1839
1949
2101
2195
2189
2080
1930
1835
1843
1955
2128
2271
2299
2186
2010
1856
1803
1856
1982
2128
2207
2187
2090
1967
1883
1905
2010
2147
2231
2217
2101
1950
1854
1855
1959
2105
2213
2253
2171
2015
1885
1855
1936
2094
2239
2320
2290
2167
2011
1925
1953
2080
2224
2311
2299
2187
2032
1931
1936
2047
2220
2351
2384
2320
2187
2064
2026
2098
2226
2349
2389
2320
2182
2035
1971
2021
2159
2308
2389
2368
2229
2036
1913
1905
1995
2141
2253
2269
2171
2018
1893
1851
1922
2046
2161
2195
2118
1963
1798
1710
1723
1819
1938
2000
1943
1793
1619
1520
1532
1636
1770
1851
1840
1727
1559
1419
1382
1458
1612
1757
1808
1730
1574
1414
1360
1438
1584
1728
1805
1761
1628
1472
1402
1446
1587
1748
1867
1877
1779
1626
1491
1466
1535
1682
1802
1838
1767
1635
1499
1451
1506
1646
1802
1899
1879
1774
1625
1530
1524
1631
1790
1924
1968
1884
1738
1607
1586
1680
1821
1957
2000
1936
1775
1638
1591
1650
1793
1950
2047
2021
1899
1746
1657
1680
1789
1937
2047
2059
1955
1813
1713
1707
1801
1943
2075
2113
2030
1887
1744
1687
1744
1869
2014
2107
2079
1955
1813
1728
1747
1867
2013
2122
2128
2026
1874
1757
1722
1788
1907
2022
2067
1989
1853
1724
1664
1711
1837
1973
2041
1999
1872
1725
1643
1674
1808
1981
2096
2096
1981
1825
1708
1698
1797
1953
2107
2165
2099
1959
1827
1779
1833
1946
2086
2158
2124
2001
1869
1785
1811
1932
2096
2214
2227
2126
1971
1853
1831
1905
2047
2183
2224
2149
1994
1867
1840
1904
2031
2166
2225
2170
2031
1901
1853
1901
2005
2135
2226
2223
2125
1977
1868
1853
1920
2057
2173
2205
2133
2000
1883
1861
1943
2092
2240
2308
2257
2119
1947
1846
1875
2001
2166
2272
2277
2176
2007
1882
1872
1967
2125
2255
2288
2210
2058
1911
1864
1915
2047
2201
2275
2237
2112
1964
1881
1904
2000
2131
2214
2196
2098
1947
1841
1845
1943
2080
2183
2192
2090
1929
1804
1765
1835
1975
2118
2178
2119
1984
1845
1776
1814
1943
2105
2196
2177
2059
1902
1801
1809
1920
2077
2199
2224
2142
1985
1850
1803
1871
2007
2159
2231
2193
2070
1936
1879
1939
2093
2263
2394
2454
2447
2421
2457
2582
2747
2911
3018
2999
2833
2598
2361
2219
2175
2196
2226
2178
2043
1865
1726
1686
1769
1922
2105
2207
2182
2046
1881
1770
1769
1856
1986
2087
2099
2005
1864
1746
1712
1770
1887
2011
2067
2013
1893
1771
1727
1799
1926
2082
2149
2106
1967
1808
1719
1738
1840
1984
2110
2123
2023
1872
1744
1724
1807
1954
2097
2142
2070
1930
1791
1728
1775
1904
2036
2106
2073
1951
1803
1709
1728
1857
2027
2160
2173
2071
1913
1793
1776
1857
2000
2134
2173
2103
1961
1823
1783
1846
1982
2140
2237
2235
2132
1993
1901
1904
2002
2144
2246
2258
2169
2021
1913
1901
1984
2134
2271
2319
2251
2122
1993
1953
2012
2146
2288
2368
2335
2221
2087
2015
2047
2170
2320
2435
2443
2352
2209
2104
2095
2185
2338
2475
2515
2448
2304
2155
2093
2140
2263
2391
2464
2435
2318
2160
2063
2070
2173
2298
2369
2352
2229
2064
1922
1886
1962
2099
2219
2244
2155
1987
1837
1776
1808
1914
2031
2067
1982
1810
1635
1535
1582
1685
1823
1905
1878
1760
1600
1481
1465
1557
1693
1804
1823
1728
1577
1423
1367
1424
1565
1712
1777
1728
1600
1447
1371
1406
1520
1661
1746
1743
1619
1451
1331
1318
1408
1571
1712
1758
1701
1573
1442
1397
1456
1596
1734
1808
1775
1649
1497
1419
1446
1580
1731
1829
1809
1701
1559
1471
1483
1589
1735
1859
1887
1794
1643
1502
1456
1511
1650
1791
1866
1837
1715
1584
1517
1566
1698
1850
1933
1902
1781
1630
1533
1552
1654
1795
1907
1936
1852
1702
1582
1553
1639
1783
1922
1985
1930
1804
1675
1616
1653
1750
1867
1920
1871
1750
1616
1535
1577
1696
1849
1967
1985
1893
1743
1616
1590
1664
1795
1927
1973
1913
1794
1675
1607
1671
1799
1947
2027
1985
1856
1709
1616
1642
1751
1907
2013
2015
1907
1749
1631
1615
1708
1861
1996
2041
1975
1824
1675
1612
1678
1814
1968
2061
2032
1911
1761
1682
1712
1821
1966
2078
2077
1965
1797
1685
1679
1765
1909
2041
2101
2053
1924
1792
1738
1794
1919
2067
2146
2117
2000
1855
1755
1763
1866
2010
2113
2121
2017
1873
1776
1770
1851
1999
2142
2187
2111
1963
1825
1777
1834
1957
2107
2191
2150
2009
1859
1776
1794
1901
2039
2142
2151
2055
1915
1805
1781
1857
2006
2149
2201
2147
2005
1859
1791
1847
1984
2140
2222
2181
2057
1904
1823
1856
1983
2137
2243
2245
2143
1984
1861
1846
1911
2046
2195
2267
2220
2087
1936
1874
1919
2028
2142
2194
2153
2027
1885
1808
1842
1950
2091
2173
2157
2032
1877
1774
1759
1852
1999
2117
2143
2047
1901
1775
1728
1778
1904
2047
2123
2091
1959
1809
1725
1751
1874
2022
2123
2113
2003
1860
1769
1777
1883
2030
2160
2201
2112
1951
1830
1806
1893
2061
2253
2393
2454
2454
2451
2502
2614
2754
2895
2948
2865
2663
2401
2173
2028
1990
2029
2065
2037
1942
1829
1741
1742
1841
2000
2143
2197
2131
1991
1840
1760
1793
1921
2083
2182
2178
2075
1937
1850
1857
1938
2071
2176
2191
2095
1936
1809
1780
1855
2000
2146
2205
2139
1988
1827
1744
1776
1899
2062
2176
2178
2075
1936
1848
1855
1947
2079
2175
2191
2103
1963
1850
1835
1919
2070
2203
2255
2193
2051
1897
1805
1825
1936
2089
2185
2176
2073
1931
1843
1858
1957
2096
2192
2197
2095
1936
1805
1783
1869
2003
2155
2219
2167
2028
1906
1843
1878
1984
2122
2201
2180
2077
1946
1879
1904
2005
2161
2276
2300
2209
2066
1949
1927
2011
2164
2304
2365
2313
2193
2082
2033
2096
2221
2366
2454
2431
2310
2173
2083
2096
2202
2346
2453
2459
2363
2217
2099
2075
2145
2278
2394
2435
2363
2219
2087
2022
2074
2191
2315
2375
2321
2191
2023
1910
1904
1997
2138
2233
2236
2118
1945
1809
1774
1834
1945
2041
2064
1962
1793
1649
1579
1616
1743
1887
1968
1921
1766
1590
1479
1482
1570
1701
1799
1811
1725
1573
1441
1406
1471
1600
1715
1749
1670
1524
1395
1347
1402
1517
1669
1757
1734
1614
1466
1380
1395
1488
1619
1712
1728
1649
1511
1406
1391
1479
1630
1763
1805
1728
1584
1445
1405
1468
1610
1759
1840
1807
1680
1533
1454
1484
1622
1798
1920
1937
1835
1675
1535
1499
1582
1727
1861
1914
1853
1727
1616
1584
1653
1790
1921
1983
1927
1803
1659
1579
1594
1701
1842
1941
1937
1835
1693
1599
1607
1706
1856
1988
2019
1932
1775
1631
1584
1650
1791
1927
1993
1939
1809
1659
1567
1596
1709
1856
1952
1939
1827
1671
1564
1568
1680
1840
1969
2000
1914
1764
1639
1597
1660
1799
1945
2015
1977
1851
1718
1651
1695
1817
1956
2045
2020
1904
1760
1664
1651
1728
1865
1979
2009
1926
1782
1663
1643
1725
1871
1993
2039
1975
1847
1729
1681
1739
1872
2029
2128
2111
1984
1829
1738
1744
1843
1995
2127
2158
2061
1905
1779
1758
1840
1983
2121
2169
2103
1966
1819
1744
1795
1919
2069
2147
2126
2006
1871
1790
1808
1913
2063
2161
2167
2055
1885
1743
1712
1797
1954
2111
2160
2096
1956
1819
1751
1791
1899
2032
2118
2112
2007
1873
1793
1809
1912
2058
2149
2135
2025
1875
1771
1753
1839
1980
2114
2160
2091
1947
1807
1735
1776
1887
2015
2087
2037
1904
1746
1655
1679
1789
1936
2045
2062
1981
1854
1751
1744
1821
1954
2096
2134
2069
1927
1798
1747
1798
1913
2039
2112
2089
1967
1814
1706
1696
1795
1955
2081
2105
2022
1887
1774
1750
1847
2017
2181
2256
2226
2143
2096
2162
2350
2594
2813
2929
2901
2745
2527
2347
2240
2215
2224
2191
2069
1868
1652
1510
1514
1655
1857
2035
2116
2069
1941
1815
1747
1786
1891
2007
2066
2006
1872
1725
1645
1671
1778
1907
2000
1989
1886
1744
1649
1658
1761
1920
2047
2087
2011
1865
1719
1657
1727
1873
2030
2119
2081
1949
1808
1727
1745
1851
2005
2122
2127
2022
1879
1775
1759
1846
1996
2113
2152
2075
1933
1809
1776
1839
1975
2119
2183
2142
2032
1910
1847
1876
1993
2142
2238
2229
2125
1971
1869
1873
1974
2123
2243
2275
2203
2068
1940
1907
1983
2132
2283
2352
2306
2165
2000
1930
1975
2115
2283
2401
2404
2302
2154
2044
2055
2163
2325
2455
2497
2435
2305
2192
2167
2240
2383
2519
2590
2541
2418
2284
2221
2256
2379
2535
2639
2627
2509
2352
2241
2230
2326
2475
2599
2631
2544
2389
2256
2218
2285
2420
2545
2601
2531
2387
2239
2158
2181
2283
2403
2478
2437
2305
2131
1994
1951
2006
2131
2227
2238
2142
1980
1842
1789
1845
1969
2093
2121
2043
1895
1738
1657
1682
1793
1933
2011
1981
1853
1695
1601
1602
1694
1840
1955
1971
1872
1714
1589
1555
1633
1767
1898
1950
1898
1773
1637
1579
1626
1746
1889
1975
1961
1841
1697
1597
1600
1690
1830
1947
1977
1897
1750
1631
1616
1711
1857
1994
2041
1973
1831
1691
1626
1678
1808
1950
2031
2014
1916
1777
1685
1703
1808
1943
2034
2027
1923
1781
1666
1647
1731
1885
2018
2064
1989
1847
1711
1663
1719
1855
1995
2078
2047
1925
1776
1684
1701
1810
1965
2080
2087
1978
1830
1712
1682
1767
1915
2061
2099
2025
1881
1728
1660
1705
1836
1989
2082
2063
1947
1809
1725
1731
1827
1965
2064
2063
1957
1815
1713
1715
1808
1949
2077
2112
2025
1871
1731
1680
1750
1903
2064
2155
2128
2000
1856
1776
1808
1923
2076
2178
2177
2074
1919
1815
1819
1926
2091
2213
2237
2147
1997
1866
1822
1897
2035
2179
2237
2187
2047
1887
1803
1826
1937
2091
2191
2192
2097
1954
1847
1831
1907
2047
2169
2205
2125
1973
1847
1807
1873
2001
2147
2213
2170
2047
1911
1841
1872
1987
2135
2227
2222
2114
1967
1865
1855
1940
2084
2194
2229
2153
2006
1879
1826
1871
1990
2129
2191
2141
2007
1854
1770
1812
1955
2128
2237
2229
2117
1946
1823
1804
1895
2039
2170
2192
2099
1954
1840
1811
1885
2021
2166
2233
2193
2062
1904
1828
1856
1969
2113
2192
2172
2047
1887
1783
1789
1875
2021
2143
2186
2115
1971
1851
1808
1875
2009
2161
2233
2181
2043
1889
1810
1845
1959
2110
2205
2194
2085
1927
1811
1804
1893
2034
2147
2173
2090
1929
1790
1744
1807
1936
2070
2132
2091
1954
1810
1739
1776
1900
2055
2143
2119
1995
1840
1725
1718
1813
1964
2085
2112
2029
1890
1762
1723
1787
1919
2064
2147
2125
2009
1893
1837
1876
2003
2162
2267
2270
2195
2137
2163
2309
2545
2801
2977
3011
2895
2693
2507
2386
2345
2341
2325
2243
2069
1853
1664
1585
1639
1779
1944
2053
2033
1929
1785
1682
1695
1797
1936
2041
2064
1970
1825
1706
1671
1734
1863
1983
2030
1968
1832
1692
1619
1653
1771
1910
1998
1991
1893
1759
1671
1683
1776
1906
2000
2003
1902
1743
1616
1582
1658
1803
1935
1983
1918
1781
1645
1594
1648
1773
1911
2000
1986
1869
1725
1641
1659
1775
1936
2064
2074
1974
1826
1699
1668
1744
1887
2016
2070
2009
1887
1776
1739
1798
1936
2075
2138
2095
1963
1819
1744
1774
1879
2023
2134
2140
2038
1891
1781
1774
1867
2014
2157
2201
2141
2006
1881
1837
1890
2011
2158
2239
2218
2114
1978
1899
1922
2035
2178
2267
2249
2148
2027
1947
1962
2063
2192
2299
2323
2253
2129
2013
1965
2022
2158
2291
2354
2315
2186
2039
1959
1985
2099
2240
2336
2320
2192
2023
1904
1877
1953
2091
2202
2224
2133
1972
1823
1758
1811
1929
2040
2083
2001
1843
1667
1568
1578
1664
1766
1856
1837
1724
1555
1435
1420
1493
1627
1733
1759
1679
1530
1404
1359
1413
1569
1711
1792
1759
1634
1475
1391
1408
1524
1687
1795
1790
1674
1514
1408
1409
1503
1658
1776
1791
1697
1535
1401
1356
1417
1535
1682
1748
1713
1585
1455
1394
1430
1535
1677
1761
1744
1642
1498
1409
1422
1531
1695
1828
1856
1776
1632
1490
1447
1501
1630
1765
1813
1746
1605
1455
1387
1435
1574
1732
1837
1837
1732
1584
1469
1466
1574
1733
1859
1875
1776
1633
1520
1488
1568
1711
1853
1911
1856
1726
1583
1499
1535
1684
1856
1968
1973
1863
1687
1567
1535
1633
1771
1882
1905
1829
1690
1583
1562
1650
1806
1945
2005
1953
1812
1661
1579
1601
1709
1841
1936
1930
1826
1680
1588
1595
1696
1837
1947
1965
1877
1745
1647
1623
1700
1833
1967
2017
1951
1808
1667
1604
1648
1772
1920
2007
1995
1890
1746
1648
1638
1713
1837
1937
1957
1872
1738
1626
1605
1695
1834
1967
2032
1993
1874
1744
1676
1712
1823
1962
2029
1985
1865
1723
1642
1662
1776
1934
2059
2081
1987
1837
1714
1693
1764
1893
2007
2070
2007
1872
1743
1685
1733
1859
2000
2084
2059
1943
1808
1717
1732
1840
1990
2111
2127
2033
1884
1772
1763
1861
2006
2139
2179
2123
1990
1857
1799
1845
1949
2069
2142
2109
1993
1865
1792
1819
1931
2078
2183
2194
2096
1941
1825
1804
1890
2042
2183
2230
2160
2004
1866
1807
1857
1994
2154
2238
2199
2078
1934
1858
1894
2007
2159
2256
2255
2154
1999
1879
1853
1936
2097
2234
2286
2229
2102
1973
1923
2002
2145
2288
2347
2290
2142
1974
1885
1900
2006
2160
2271
2291
2201
2047
1927
1902
1970
2103
2227
2258
2163
1993
1831
1760
1809
1943
2103
2192
2172
2064
1925
1859
1891
1998
2141
2234
2224
2121
1969
1873
1869
1951
2082
2192
2221
2150
2017
1883
1837
1904
2046
2193
2277
2246
2145
2029
1983
2034
2202
2432
2661
2807
2847
2817
2768
2783
2870
2983
3039
2991
2800
2519
2240
2033
1968
2006
2095
2135
2099
1997
1882
1841
1899
2028
2174
2251
2213
2080
1901
1766
1743
1830
1977
2118
2163
2096
1943
1808
1760
1819
1939
2069
2124
2062
1927
1791
1716
1751
1881
2041
2150
2147
2030
1859
1743
1735
1815
1952
2074
2115
2037
1903
1779
1744
1815
1955
2101
2160
2111
1974
1839
1776
1825
1950
2108
2200
2185
2070
1919
1815
1819
1922
2082
2195
2217
2123
1968
1843
1821
1913
2063
2192
2247
2183
2043
1909
1855
1895
2017
2182
2290
2293
2195
2064
1961
1953
2045
2192
2311
2335
2251
2098
1973
1952
2045
2199
2339
2394
2338
2209
2091
2042
2099
2224
2378
2474
2474
2378
2237
2142
2160
2263
2405
2519
2551
2475
2341
2228
2202
2273
2402
2533
2591
2525
2383
2235
2167
2203
2318
2462
2559
2559
2449
2295
2187
2182
2277
2411
2496
2496
2391
2224
2097
2059
2109
2211
2311
2343
2267
2118
1953
1864
1885
1988
2125
2195
2159
2014
1829
1706
1685
1765
1901
2006
2016
1917
1757
1630
1600
1664
1806
1946
2000
1927
1763
1619
1527
1584
1718
1891
2000
1990
1878
1723
1616
1616
1716
1852
1953
1969
1867
1717
1601
1591
1680
1817
1941
1980
1903
1746
1597
1518
1567
1712
1882
1983
1967
1846
1703
1617
1638
1741
1874
1971
1981
1886
1730
1616
1587
1659
1785
1913
1956
1890
1745
1613
1566
1627
1747
1882
1949
1913
1783
1629
1529
1535
1650
1803
1911
1925
1827
1676
1552
1525
1621
1771
1894
1931
1865
1738
1603
1535
1583
1696
1838
1919
1897
1772
1607
1502
1517
1626
1770
1878
1867
1753
1599
1483
1479
1581
1716
1835
1869
1806
1678
1535
1489
1535
1669
1807
1870
1824
1699
1552
1457
1477
1602
1763
1874
1885
1790
1642
1525
1520
1612
1749
1874
1919
1850
1713
1584
1531
1595
1716
1859
1936
1915
1794
1655
1578
1601
1725
1889
2000
1990
1878
1727
1617
1610
1713
1865
1978
2000
1915
1774
1649
1616
1690
1827
1968
2047
2013
1897
1751
1679
1712
1826
1972
2073
2061
1939
1791
1683
1675
1763
1910
2035
2084
2014
1874
1741
1695
1769
1915
2065
2128
2083
1947
1805
1728
1759
1879
2032
2127
2112
1997
1840
1731
1741
1851
2017
2175
2221
2139
1983
1846
1795
1856
1983
2118
2177
2127
1995
1869
1809
1862
1986
2139
2241
2235
2127
1958
1840
1839
1936
2078
2181
2204
2120
1972
1853
1817
1886
2027
2167
2233
2191
2087
1963
1898
1934
2037
2172
2249
2236
2121
1968
1859
1859
1968
2130
2257
2285
2185
2017
1882
1856
1928
2064
2194
2255
2199
2063
1907
1833
1874
1994
2133
2224
2210
2103
1946
1845
1850
1947
2103
2243
2270
2186
2039
1921
1895
1962
2096
2219
2264
2205
2061
1901
1813
1840
1963
2127
2226
2226
2117
1981
1895
1903
1997
2131
2256
2305
2263
2182
2129
2191
2375
2635
2880
3023
3007
2881
2724
2613
2559
2579
2610
2559
2394
2141
1878
1705
1664
1759
1953
2130
2207
2157
2033
1927
1900
1966
2095
2209
2249
2191
2059
1911
1835
1867
1984
2133
2231
2224
2113
1975
1892
1904
2009
2145
2238
2240
2142
1987
1863
1839
1921
2072
2211
2267
2205
2070
1926
1867
1914
2033
2179
2256
2224
2108
1958
1882
1902
1998
2148
2257
2274
2182
2041
1927
1904
1979
2118
2246
2288
2225
2091
1950
1895
1939
2071
2211
2287
2251
2128
1990
1914
1937
2046
2194
2307
2320
2227
2085
1967
1936
1997
2127
2255
2304
2239
2107
1966
1909
1968
2107
2256
2333
2298
2174
2032
1966
2000
2119
2270
2382
2384
2297
2165
2059
2032
2117
2256
2390
2442
2365
2215
2077
2032
2115
2262
2406
2478
2423
2293
2159
2088
2122
2242
2394
2495
2498
2389
2235
2122
2101
2183
2318
2446
2482
2406
2256
2110
2031
2073
2187
2311
2371
2310
2157
1968
1848
1843
1936
2071
2169
2162
2054
1888
1749
1693
1744
1858
1963
1983
1892
1734
1589
1520
1574
1697
1840
1904
1840
1697
1520
1421
1434
1535
1685
1776
1769
1661
1499
1386
1367
1459
1607
1735
1783
1715
1582
1438
1374
1429
1569
1712
1795
1762
1627
1460
1363
1390
1509
1676
1787
1795
1699
1558
1451
1447
1535
1707
1829
1865
1778
1628
1483
1429
1493
1647
1788
1864
1819
1684
1535
1448
1488
1607
1744
1872
1870
1770
1629
1535
1566
1659
1798
1911
1938
1862
1702
1535
1475
1529
1664
1802
1869
1840
1713
1583
1513
1559
1680
1821
1905
1888
1773
1619
1525
1533
1634
1782
1895
1917
1827
1681
1560
1518
1584
1709
1840
1904
1870
1744
1615
1535
1571
1679
1807
1893
1897
1793
1649
1535
1534
1634
1789
1914
1943
1866
1730
1607
1568
1623
1746
1872
1924
1878
1759
1619
1557
1603
1735
1887
1980
1967
1851
1695
1587
1593
1700
1853
1967
1981
1891
1746
1630
1606
1691
1838
1970
2035
1983
1846
1699
1618
1659
1786
1926
2010
1989
1877
1727
1623
1635
1749
1899
2017
2045
1965
1827
1707
1669
1735
1862
1995
2055
1983
1829
1692
1648
1717
1863
2017
2099
2070
1943
1797
1701
1703
1811
1957
2070
2079
1972
1817
1694
1664
1733
1867
2001
2074
2018
1889
1759
1705
1746
1854
1988
2078
2070
1963
1817
1712
1710
1795
1934
2043
2065
1979
1840
1724
1703
1790
1935
2081
2139
2093
1964
1838
1776
1815
1922
2066
2159
2139
2026
1886
1798
1808
1895
2031
2128
2142
2055
1909
1794
1770
1856
1999
2127
2160
2078
1915
1759
1690
1744
1867
2002
2085
2041
1908
1763
1678
1699
1812
1965
2071
2079
1968
1811
1698
1680
1770
1907
2044
2096
2018
1873
1741
1687
1747
1883
2038
2128
2128
2032
1895
1801
1789
1873
2030
2163
2207
2162
2074
2051
2151
2352
2594
2800
2909
2865
2724
2549
2428
2384
2395
2398
2323
2160
1937
1719
1591
1607
1742
1922
2064
2098
2003
1850
1741
1714
1787
1915
2023
2059
1975
1833
1703
1657
1709
1835
1966
2023
1968
1827
1677
1600
1634
1759
1920
2032
2047
1949
1799
1687
1682
1776
1920
2043
2079
1992
1850
1731
1698
1756
1881
2006
2081
2031
1907
1765
1681
1711
1822
1975
2096
2106
2000
1847
1731
1714
1806
1946
2077
2118
2054
1936
1825
1775
1827
1958
2103
2177
2142
2011
1867
1789
1821
1927
2071
2173
2193
2112
1959
1854
1843
1927
2071
2201
2258
2198
2070
1934
1881
1938
2064
2191
2249
2213
2111
1994
1949
2001
2135
2301
2412
