2464
2541
2590
2551
2445
2319
2265
2299
2372
2451
2485
2447
2345
2225
2147
2147
2199
2286
2349
2343
2254
2128
2027
2000
2072
2165
2226
2235
2160
2034
1924
1857
1861
1936
2035
2135
2158
2089
1986
1923
1938
2017
2119
2183
2183
2103
1985
1904
1898
1968
2070
2141
2143
2046
1926
1856
1856
1935
2063
2176
2214
2160
2047
1943
1889
1915
1990
2085
2129
2112
2015
1887
1776
1758
1822
1919
2015
2057
2019
1926
1824
1803
1872
1979
2097
2161
2135
2039
1929
1857
1876
1967
2058
2101
2102
2032
1927
1852
1843
1905
2007
2087
2065
1979
1893
1856
1907
2029
2172
2295
2384
2401
2352
2278
2224
2224
2288
2339
2327
2224
2037
1829
1663
1595
1635
1733
1839
1904
1904
1863
1817
1811
1872
1968
2071
2134
2113
2003
1915
1854
1851
1922
2023
2106
2110
2010
1898
1839
1822
1890
1994
2096
2120
2054
1959
1904
1920
1999
2097
2169
2193
2156
2070
1967
1905
1920
2032
2140
2202
2209
2155
2069
1981
1957
2032
2176
2304
2373
2329
2241
2163
2147
2198
2294
2374
2421
2401
2324
2251
2211
2248
2334
2427
2491
2512
2465
2369
2290
2303
2381
2452
2496
2478
2399
2299
2209
2183
2247
2365
2463
2486
2418
2273
2112
2037
2085
2187
2288
2346
2312
2175
2027
1945
1954
2038
2140
2209
2224
2160
2059
1949
1903
1943
2018
2096
2122
2075
1977
1879
1837
1865
1963
2068
2160
2166
2085
1954
1872
1863
1924
2029
2112
2128
2054
1936
1861
1872
1977
2097
2197
2230
2182
2086
1970
1899
1904
1949
2000
2034
1991
1872
1755
1719
1790
1937
2094
2163
2157
2061
1915
1805
1791
1851
1949
2037
2061
2016
1941
1849
1779
1803
1884
1987
2078
2065
1982
1876
1818
1825
1904
1999
2038
2014
1935
1855
1811
1866
1982
2135
2286
2384
2375
2273
2147
2069
2061
2102
2138
2115
2013
1846
1664
1535
1535
1638
1755
1860
1889
1840
1748
1680
1715
1867
2026
2146
2192
2141
2008
1890
1870
1939
2057
2161
2211
2183
2093
1975
1901
1893
1945
2029
2097
2096
2009
1920
1872
1895
1979
2101
2210
2256
2233
2139
2023
1969
1997
2085
2192
2258
2240
2139
2014
1941
1951
2053
2193
2291
2303
2237
2143
2093
2106
2185
2317
2432
2475
2416
2304
2211
2189
2242
2330
2416
2463
2425
2315
2201
2134
2155
2269
2400
2482
2493
2416
2307
2218
2176
2231
2307
2363
2355
2256
2083
1959
1919
1984
2101
2219
2275
2262
2175
2054
1972
1980
2069
2171
2224
2192
2082
1925
1808
1801
1907
2032
2090
2019
1847
1617
1395
1263
1243
1330
1430
1478
1442
1314
1175
1105
1107
1159
1230
1303
1328
1292
1223
1165
1168
1230
1319
1399
1407
1329
1203
1099
1074
1129
1234
1345
1417
1399
1321
1213
1141
1155
1264
1401
1503
1535
1487
1394
1325
1313
1359
1422
1493
1520
1488
1419
1344
1322
1379
1489
1600
1677
1650
1557
1458
1415
1442
1520
1616
1665
1647
1553
1465
1441
1504
1647
1802
1923
1977
1931
1825
1728
1712
1759
1827
1877
1872
1776
1616
1451
1349
1355
1447
1584
1686
1719
1680
1622
1610
1653
1759
1877
1969
1984
1910
1792
1686
1647
1681
1776
1885
1954
1941
1867
1773
1731
1774
1886
2009
2095
2085
1995
1894
1831
1839
1930
2047
2147
2162
2087
1954
1840
1811
1891
2032
2167
2224
2175
2069
1968
1951
2006
2121
2224
2288
2286
2217
2127
2064
2078
2160
2258
2353
2394
2364
2286
2222
2215
2293
2401
2512
2559
2512
2421
2325
2290
2335
2423
2502
2535
2503
2400
2287
2221
2233
2301
2384
2461
2471
2395
2279
2174
2128
2162
2241
2320
2352
2314
2203
2093
2027
2047
2133
2221
2259
2229
2130
2018
1965
1984
2073
2159
2213
2215
2153
2055
1968
1952
2019
2139
2241
2279
2238
2129
2015
1954
1968
2036
2145
2239
2257
2192
2097
2032
2041
2114
2202
2257
2247
2171
2059
1968
1953
2010
2115
2196
2209
2131
2006
1919
1893
1936
2027
2114
2155
2112
2017
1923
1875
1907
1993
2097
2154
2129
2032
1910
1834
1843
1945
2065
2160
2183
2138
2045
1966
1936
1974
2057
2146
2189
2160
2083
2006
1995
2071
2229
2399
2512
2530
2447
2317
2208
2159
2176
2225
2253
2197
2055
1895
1791
1779
1861
2000
2145
2224
2210
2117
2011
1952
1983
2071
2170
2240
2240
2165
2066
1987
1994
2069
2167
2242
2243
2165
2059
1968
1954
2017
2138
2251
2305
2278
2173
2063
2002
2032
2127
2226
2302
2301
2220
2122
2064
2069
2154
2264
2367
2403
2370
2303
2240
2231
2291
2384
2476
2499
2454
2359
2273
2240
2288
2401
2521
2608
2615
2537
2433
2362
2366
2445
2559
2654
2672
2607
2496
2407
2382
2433
2527
2615
2639
2559
2443
2320
2274
2305
2394
2486
2537
2513
2426
2306
2211
2180
2216
2269
2326
2350
2286
2177
2079
2055
2105
2192
2269
2293
2240
2133
2020
1968
2003
2101
2207
2275
2250
2128
1969
1863
1857
1945
2089
2212
2250
2191
2083
1984
1956
1995
2091
2181
2227
2194
2096
1989
1943
1975
2067
2158
2199
2174
2071
1957
1889
1904
1982
2079
2157
2158
2071
1952
1856
1829
1872
1958
2033
2070
2038
1966
1874
1843
1899
2000
2106
2157
2139
2046
1936
1868
1888
1982
2095
2167
2170
2091
1956
1834
1776
1818
1918
2026
2096
2088
2018
1990
2061
2207
2387
2530
2595
2545
2419
2256
2113
2043
2027
2000
1968
1881
1758
1654
1627
1700
1856
2027
2157
2195
2142
2011
1882
1835
1878
1984
2101
2162
2142
2031
1903
1840
1865
1968
2090
2179
2211
2142
2030
1927
1909
1961
2039
2112
2139
2108
2032
1955
1931
1989
2095
2170
2196
2163
2090
2011
1978
2007
2101
2216
2315
2343
2287
2192
2112
2112
2203
2334
2446
2487
2438
2335
2238
2214
2277
2393
2506
2559
2538
2442
2327
2273
2306
2401
2511
2583
2559
2480
2355
2262
2263
2338
2438
2517
2527
2454
2336
2227
2174
2187
2242
2315
2353
2325
2231
2115
2035
2045
2115
2203
2258
2239
2140
2021
1931
1915
1975
2058
2115
2112
2033
1916
1822
1795
1853
1952
2043
2080
2027
1914
1799
1760
1810
1915
2023
2096
2086
2000
1904
1842
1839
1899
1986
2067
2093
2027
1925
1841
1821
1875
1968
2061
2095
2042
1929
1809
1741
1758
1829
1907
1961
1935
1835
1712
1631
1629
1702
1808
1895
1914
1846
1735
1639
1605
1653
1744
1838
1878
1843
1745
1653
1633
1703
1821
1931
1975
1936
1822
1687
1593
1586
1679
1815
1947
2031
2054
2055
2083
2171
2290
2391
2442
2413
2311
2160
1991
1865
1791
1759
1753
1743
1697
1616
1535
1535
1607
1737
1871
1956
1965
1883
1773
1674
1648
1703
1808
1909
1956
1924
1831
1735
1695
1728
1819
1925
1998
1981
1885
1776
1707
1713
1791
1893
1967
1980
1916
1806
1727
1754
1861
1995
2112
2160
2111
1986
1867
1827
1877
1991
2123
2199
2193
2107
1983
1918
1947
2063
2179
2269
2287
2218
2113
2031
2027
2112
2242
2361
2418
2381
2274
2189
2169
2222
2320
2419
2475
2453
2355
2239
2171
2179
2260
2349
2396
2368
2258
2125
2016
2025
2091
2190
2277
2289
2211
2065
1920
1841
1874
1955
2035
2083
2032
1904
1770
1674
1665
1731
1819
1889
1886
1791
1677
1593
1584
1650
1744
1804
1797
1712
1595
1504
1486
1553
1670
1777
1831
1776
1646
1498
1414
1418
1501
1604
1680
1680
1588
1456
1365
1359
1426
1523
1615
1629
1561
1444
1345
1307
1347
1431
1519
1554
1503
1379
1269
1213
1245
1344
1461
1535
1522
1417
1296
1231
1249
1348
1473
1584
1616
1565
1450
1332
1291
1321
1415
1527
1604
1591
1493
1387
1322
1329
1417
1527
1615
1629
1587
1565
1603
1714
1873
2025
2127
2138
2053
1898
1727
1610
1553
1522
1506
1481
1407
1307
1240
1249
1344
1511
1675
1765
1769
1687
1582
1493
1489
1568
1667
1751
1745
1668
1554
1470
1454
1522
1659
1779
1839
1803
1699
1591
1530
1573
1676
1794
1887
1901
1826
1723
1648
1653
1728
1835
1921
1949
1904
1808
1733
1719
1786
1891
1997
2064
2036
1943
1839
1795
1845
1966
2099
2179
2167
2064
1938
1874
1904
2018
2172
2294
2342
2277
2147
2033
2025
2112
2256
2387
2431
2356
2221
2097
2060
2108
2215
2325
2391
2376
2275
2142
2038
2023
2081
2171
2231
2225
2147
2022
1936
1904
1941
2023
2111
2131
2079
1966
1850
1783
1795
1867
1953
1991
1953
1855
1760
1718
1744
1840
1955
2035
2030
1935
1788
1650
1616
1689
1837
1971
2039
2016
1920
1823
1775
1791
1865
1946
1995
1975
1874
1763
1701
1742
1847
1969
2065
2075
1979
1838
1735
1714
1769
1861
1935
1943
1885
1782
1693
1655
1685
1774
1851
1878
1844
1738
1628
1563
1585
1693
1820
1935
1959
1889
1782
1700
1699
1773
1860
1920
1918
1853
1751
1686
1664
1716
1815
1919
1984
1987
1953
1904
1885
1953
2106
2273
2409
2431
2323
2157
2015
1958
1957
1968
1951
1853
1698
1527
1388
1329
1392
1535
1728
1854
1904
1872
1805
1761
1782
1858
1937
1999
2011
1948
1854
1774
1763
1839
1939
2022
2047
1995
1878
1778
1761
1820
1936
2053
2123
2109
1993
1872
1802
1811
1894
2013
2115
2135
2073
1974
1905
1902
1967
2069
2156
2175
2126
2031
1939
1936
2010
2128
2241
2285
2239
2131
2031
1997
2076
2224
2380
2480
2480
2381
2249
2172
2166
2228
2353
2469
2509
2448
2350
2256
2234
2284
2374
2451
2481
2430
2304
2166
2098
2112
2187
2278
2345
2331
2224
2112
2025
2007
2053
2111
2151
2155
2079
1965
1866
1830
1899
1995
2080
2105
2030
1894
1783
1765
1825
1920
2032
2128
2153
2081
1952
1849
1833
1891
1977
2035
2029
1939
1821
1744
1735
1787
1884
1982
2002
1959
1878
1795
1757
1787
1872
1993
2091
2102
2002
1861
1740
1707
1771
1875
1997
2053
1985
1855
1719
1669
1759
1891
1970
1981
1904
1763
1647
1657
1786
1938
2080
2143
2107
1975
1825
1729
1727
1789
1875
1938
1980
1963
1907
1858
1834
1861
1936
2003
2021
1931
1749
1618
1601
1666
1803
1957
2094
2143
2096
2009
1955
1964
2029
2065
2047
2006
1925
1840
1758
1663
1635
1650
1701
1727
1680
1603
1558
1575
1664
1851
2043
2151
2165
2069
1945
1850
1821
1872
1943
1983
1971
1901
1802
1726
1712
1807
1967
2112
2139
2041
1898
1810
1797
1862
1969
2072
2144
2160
2093
1995
1927
1918
1941
1993
2084
2126
2096
2019
1952
1925
1968
2052
2138
2192
2173
2091
2000
1953
1978
2065
2180
2266
2259
2177
2075
2027
2071
2176
2294
2382
2394
2310
2199
2133
2153
2241
2352
2450
2490
2437
2313
2189
2123
2105
2130
2224
2320
2331
2263
2162
2075
2032
2068
2130
2198
2224
2153
2032
1915
1854
1889
1995
2101
2125
2047
1922
1809
1776
1813
1907
2001
2066
2039
1950
1853
1807
1803
1883
2011
2112
2131
2045
1913
1806
1780
1865
1996
2109
2121
2032
1909
1808
1790
1840
1921
2011
2066
2047
1982
1900
1840
1851
1937
2046
2122
2105
1990
1843
1727
1697
1769
1889
1991
2019
1955
1850
1750
1718
1747
1826
1903
1945
1923
1852
1775
1737
1764
1856
1959
2025
2028
1952
1846
1784
1791
1846
1930
1994
2000
1939
1863
1807
1794
1843
1924
2007
2047
2028
1939
1853
1829
1909
2079
2256
2386
2410
2307
2145
1995
1936
1968
2021
2046
2003
1881
1725
1585
1534
1591
1710
1851
1947
1968
1911
1829
1784
1808
1908
2030
2109
2101
2000
1874
1787
1781
1871
1981
2085
2125
2079
1968
1863
1835
1907
2034
2162
2223
2181
2067
1940
1882
1907
2000
2110
2183
2191
2112
1999
1919
1920
2019
2161
2283
2305
2238
2127
2031
2010
2077
2186
2289
2342
2320
2246
2172
2134
2176
2271
2393
2485
2487
2405
2287
2189
2175
2245
2384
2507
2555
2501
2398
2301
2279
2338
2426
2503
2523
2467
2352
2231
2170
2192
2270
2337
2371
2358
2255
2143
2062
2045
2112
2189
2237
2208
2097
1947
1837
1797
1843
1936
2017
2042
1999
1920
1866
1854
1904
2000
2094
2137
2100
1981
1856
1777
1791
1889
2011
2097
2096
2011
1891
1807
1797
1865
1951
2025
2043
1984
1885
1794
1769
1819
1920
2014
2034
1968
1840
1719
1674
1712
1824
1944
2028
2029
1937
1801
1680
1653
1713
1809
1907
1943
1891
1790
1700
1667
1710
1798
1891
1933
1904
1808
1697
1632
1633
1687
1764
1840
1855
1794
1709
1633
1622
1698
1793
1870
1899
1851
1749
1668
1653
1716
1834
1958
2057
2096
2062
1984
1924
1936
1999
2064
2094
2039
1915
1751
1599
1520
1535
1623
1712
1760
1733
1651
1585
1583
1668
1807
1922
1984
1948
1827
1683
1603
1618
1713
1839
1927
1936
1856
1728
1639
1632
1722
1839
1936
1963
1904
1782
1680
1650
1707
1808
1904
1950
1919
1813
1712
1668
1714
1831
1936
2011
2001
1910
1808
1748
1762
1851
1968
2075
2111
2068
1979
1903
1884
1947
2058
2157
2206
2176
2075
1970
1935
1983
2098
2213
2288
2285
2217
2122
2064
2094
2187
2302
2384
2399
2328
2202
2091
2035
2080
2160
2239
2258
2203
2086
1945
1871
1887
1969
2064
2123
2115
2026
1904
1799
1772
1817
1898
1963
1957
1862
1738
1633
1606
1664
1761
1847
1872
1814
1703
1600
1554
1599
1694
1797
1858
1836
1727
1597
1517
1534
1645
1776
1879
1902
1817
1695
1585
1535
1589
1675
1769
1813
1792
1712
1625
1599
1639
1731
1830
1882
1856
1741
1606
1521
1518
1603
1712
1785
1785
1702
1584
1472
1437
1488
1582
1671
1722
1683
1585
1477
1443
1499
1615
1727
1792
1760
1659
1522
1431
1445
1559
1710
1808
1831
1747
1619
1497
1455
1495
1585
1655
1663
1602
1510
1463
1511
1646
1792
1904
1941
1903
1776
1616
1471
1395
1366
1339
1296
1214
1095
1005
978
1037
1157
1323
1456
1526
1506
1413
1315
1280
1333
1428
1527
1575
1530
1417
1293
1226
1251
1360
1491
1582
1595
1535
1455
1376
1366
1438
1554
1664
1711
1674
1582
1478
1440
1482
1584
1692
1759
1744
1665
1584
1535
1599
1716
1840
1926
1941
1885
1794
1717
1712
1786
1905
2030
2090
2055
1961
1885
1883
1969
2107
2231
2290
2253
2134
2010
1955
1996
2112
2233
2310
2320
2256
2160
2096
2094
2159
2245
2319
2329
2256
2121
1998
1949
1991
2096
2180
2222
2186
2078
1952
1872
1871
1935
2001
2030
1997
1900
1794
1728
1738
1807
1898
1968
1978
1907
1794
1687
1650
1698
1788
1867
1904
1870
1775
1675
1633
1679
1773
1869
1943
1959
1895
1799
1726
1728
1803
1891
1963
1961
1893
1791
1706
1692
1765
1872
1968
2005
1964
1855
1750
1707
1735
1838
1939
2001
1987
1898
1767
1664
1644
1697
1782
1847
1850
1781
1679
1605
1614
1692
1808
1906
1947
1915
1815
1712
1664
1695
1787
1887
1942
1934
1840
1732
1665
1673
1755
1842
1890
1862
1761
1664
1625
1679
1830
2032
2247
2415
2486
2455
2383
2343
2347
2384
2416
2382
2261
2059
1815
1630
1553
1569
1648
1747
1830
1837
1791
1757
1767
1841
1955
2067
2097
2043
1921
1809
1757
1778
1870
1967
2030
2016
1936
1835
1778
1805
1909
2042
2144
2161
2091
1962
1846
1808
1861
1993
2131
2205
2185
2104
2011
1978
2022
2128
2231
2287
2270
2178
2071
2003
2031
2125
2237
2313
2322
2249
2142
2075
2099
2195
2331
2444
2497
2463
2383
2303
2279
2330
2435
2545
2617
2597
2496
2369
2293
2310
2416
2544
2647
2663
2601
2534
2518
2559
2714
2892
3045
3120
3069
2939
2800
2753
2795
2881
2967
2999
2959
2855
2727
2635
2623
2675
2753
2817
2806
2709
2579
2477
2444
2497
2590
2659
2670
2595
2475
2368
2320
2350
2416
2496
2531
2497
2395
2283
2210
2227
2319
2427
2494
2480
2382
2256
2159
2134
2183
2275
2371
2414
2369
2267
2174
2129
2167
2250
2327
2375
2342
2235
2116
2044
2047
2128
2223
2267
2242
2143
2019
1927
1911
1969
2069
2158
2177
2112
1997
1897
1862
1905
2000
2101
2158
2144
2063
1942
1871
1873
1940
2029
2081
2040
1934
1796
1713
1715
1811
1959
2096
2160
2156
2127
2128
2205
2345
2485
2590
2608
2515
2349
2162
2022
1954
1937
1935
1911
1846
1739
1636
1589
1644
1775
1925
2033
2062
1989
1869
1754
1711
1744
1845
1954
2002
1963
1840
1707
1639
1674
1790
1925
2037
2074
2017
1922
1856
1858
1921
2000
2055
2032
1948
1840
1767
1774
1857
1985
2099
2140
2099
1995
1884
1837
1873
1986
2115
2199
2192
2099
1982
1918
1947
2059
2171
2253
2258
2192
2090
1994
1977
2047
2177
2294
2364
2352
2266
2181
2155
2205
2307
2399
2461
2465
2403
2307
2240
2243
2305
2384
2448
2442
2347
2197
2065
2002
2033
2114
2195
2233
2192
2075
1952
1895
1930
2022
2119
2149
2093
1968
1841
1778
1793
1857
1934
2002
2009
1931
1808
1705
1679
1747
1872
1995
2044
1981
1846
1712
1648
1689
1793
1904
1967
1920
1793
1664
1594
1617
1725
1852
1940
1955
1904
1797
1712
1690
1723
1776
1831
1865
1834
1744
1648
1610
1648
1732
1853
1936
1936
1849
1745
1679
1680
1749
1838
1880
1855
1753
1638
1565
1562
1638
1759
1856
1872
1803
1680
1584
1562
1623
1734
1839
1888
1852
1759
1666
1618
1638
1712
1807
1867
1840
1729
1610
1531
1572
1737
1934
2102
2192
2215
2190
2147
2128
2151
2193
2215
2175
2055
1871
1679
1531
1471
1480
1533
1587
1597
1562
1511
1503
1533
1647
1786
1905
1959
1909
1788
1677
1634
1682
1787
1902
1968
1935
1831
1723
1665
1706
1814
1915
1971
1951
1845
1717
1628
1633
1744
1908
2065
2137
2098
1983
1885
1859
1905
2011
2092
2130
2095
1989
1888
1837
1866
1951
2054
2141
2173
2119
2027
1962
1963
2035
2154
2250
2267
2207
2131
2085
2083
2143
2236
2320
2379
2383
2320
2235
2170
2175
2259
2371
2448
2448
2352
2234
2145
2143
2218
2323
2419
2423
2317
2173
2059
2018
2071
2176
2262
2287
2207
2063
1914
1837
1837
1904
1984
2041
2036
1961
1854
1782
1773
1829
1922
1998
2003
1935
1825
1741
1717
1774
1859
1919
1935
1917
1850
1754
1712
1747
1845
1962
2047
2046
1949
1808
1709
1694
1787
1911
2014
2021
1951
1835
1732
1705
1750
1843
1935
1993
1957
1861
1762
1713
1739
1823
1919
1953
1913
1791
1665
1599
1648
1773
1901
1994
2015
1944
1819
1707
1680
1744
1840
1935
1975
1916
1809
1728
1713
1770
1857
1951
1993
1951
1853
1757
1716
1750
1839
1923
1985
1981
1894
1794
1753
1806
1937
2112
2265
2343
2288
2139
1985
1904
1893
1911
1939
1931
1851
1695
1524
1421
1421
1510
1642
1761
1830
1813
1754
1715
1744
1831
1943
2046
2096
2046
1933
1806
1739
1760
1846
1949
2020
2007
1927
1811
1741
1754
1840
1936
2000
2000
1936
1840
1778
1801
1885
1987
2072
2090
2018
1905
1791
1747
1797
1909
2030
2112
2093
2000
1903
1863
1909
2019
2135
2203
2204
2159
2085
2023
2023
2099
2209
2320
2352
2302
2198
2117
2112
2176
2271
2392
2494
2496
2400
2288
2237
2260
2349
2457
2527
2507
2381
2225
2113
2087
2147
2259
2337
2346
2273
2154
2047
2011
2046
2121
2181
2185
2106
1968
1840
1776
1818
1936
2063
2137
2123
2018
1902
1815
1815
1882
1983
2064
2080
1999
1871
1762
1739
1808
1908
2004
2058
2014
1907
1798
1737
1759
1859
1982
2068
2071
1984
1862
1776
1769
1837
1936
2022
2043
1977
1871
1774
1745
1805
1899
1978
2013
1966
1852
1734
1671
1691
1783
1904
1979
1967
1847
1711
1617
1615
1703
1824
1926
1962
1901
1782
1684
1669
1743
1848
1937
1975
1920
1808
1683
1618
1651
1763
1885
1952
1924
1826
1723
1648
1650
1734
1855
1958
1988
1942
1863
1828
1869
1999
2144
2243
2259
2183
2034
1889
1790
1775
1809
1840
1823
1730
1594
1463
1409
1476
1648
1851
2011
2077
2025
1906
1805
1771
1818
1905
1982
2000
1939
1824
1714
1685
1742
1854
1974
2039
2018
1922
1811
1741
1747
1825
1921
1997
2021
1965
1863
1786
1783
1855
1967
2081
2127
2078
1963
1855
1829
1885
2007
2128
2197
2182
2098
1990
1935
1962
2064
2177
2258
2266
2192
2096
2017
2021
2114
2240
2358
2407
2377
2298
2224
2219
2278
2379
2477
2517
2480
2362
2251
2189
2203
2288
2406
2480
2465
2359
2215
2103
2064
2114
2213
2302
2329
2278
2159
2018
1959
1980
2057
2146
2192
2151
2033
1915
1844
1854
1922
2001
2033
2019
1939
1846
1783
1789
1865
1970
2057
2069
1988
1858
1739
1682
1718
1825
1936
2000
1974
1885
1782
1728
1751
1840
1934
1990
1974
1877
1761
1679
1669
1731
1842
1962
2015
1977
1868
1769
1741
1787
1879
1968
1982
1910
1781
1659
1614
1664
1775
1889
1950
1936
1843
1725
1643
1643
1723
1838
1930
1949
1871
1741
1634
1607
1659
1773
1887
1938
1902
1789
1673
1616
1653
1765
1889
1958
1936
1826
1697
1612
1632
1766
1951
2121
2223
2234
2171
2097
2059
2096
2163
2225
2219
2112
1909
1687
1523
1479
1533
1647
1755
1808
1777
1713
1680
1703
1793
1893
1957
1958
1878
1760
1670
1655
1724
1831
1941
1989
1942
1821
1687
1634
1691
1815
1947
2035
2019
1924
1809
1755
1776
1860
1977
2070
2086
2007
1885
1784
1765
1838
1938
2036
2071
2022
1929
1871
1854
1920
2042
2167
2250
2255
2175
2081
2012
2039
2137
2253
2350
2370
2304
2195
2110
2105
2182
2304
2425
2477
2437
2336
2233
2183
2218
2308
2406
2458
2431
2326
2213
2140
2138
2191
2280
2335
2335
2249
2128
2026
2001
2064
2158
2235
2247
2176
2058
1936
1875
1887
1961
2059
2101
2058
1933
1802
1723
1730
1808
1889
1936
1925
1851
1753
1680
1664
1714
1791
1837
1813
1712
1557
1420
1371
1415
1521
1636
1680
1638
1515
1386
1319
1339
1427
1535
1645
1680
1629
1529
1439
1422
1478
1565
1647
1685
1651
1562
1462
1421
1460
1563
1650
1677
1615
1484
1360
1307
1356
1466
1596
1676
1664
1559
1424
1338
1344
1436
1555
1655
1701
1652
1534
1426
1381
1430
1534
1636
1686
1673
1602
1488
1417
1429
1526
1665
1776
1823
1808
1783
1792
1899
2090
2269
2387
2414
2321
2161
1991
1875
1822
1803
1770
1695
1575
1422
1315
1297
1391
1554
1718
1843
1860
1775
1649
1557
1568
1665
1787
1889
1917
1855
1746
1647
1605
1655
1756
1856
1905
1875
1804
1725
1708
1763
1871
1985
2067
2062
1958
1830
1741
1744
1840
1967
2067
2093
2027
1923
1840
1831
1904
2019
2128
2189
2176
2098
2015
1985
2041
2159
2271
2345
2335
2256
2155
2096
2128
2233
2359
2469
2510
2447
2323
2234
2222
2289
2410
2529
2608
2559
2461
2340
2275
2287
2365
2461
2525
2506
2407
2277
2178
2175
2238
2319
2373
2356
2277
2166
2067
2031
2080
2162
2224
2230
2160
2033
1914
1853
1877
1968
2054
2091
2041
1947
1856
1794
1808
1883
1970
2042
2035
1939
1811
1709
1679
1760
1889
2016
2080
2035
1926
1815
1776
1808
1897
2000
2060
2010
1891
1765
1690
1710
1811
1947
2056
2075
1995
1872
1770
1744
1809
1922
2017
2041
1981
1853
1724
1648
1657
1747
1857
1926
1919
1840
1738
1679
1712
1807
1902
1962
1959
1883
1765
1675
1659
1737
1843
1931
1939
1862
1747
1649
1631
1695
1801
1891
1929
1877
1766
1661
1616
1664
1805
1990
2162
2245
2243
2207
2175
2213
2299
2384
2423
2370
2218
1987
1747
1588
1534
1584
1664
1748
1780
1738
1675
1652
1709
1815
1933
2003
1993
1895
1771
1679
1674
1755
1872
1975
2007
1927
1782
1650
1621
1727
1887
2029
2099
2070
1965
1840
1771
1781
1867
1968
2035
2039
1954
1838
1762
1779
1876
2007
2121
2144
2081
1968
1878
1868
1941
2071
2182
2234
2197
2098
1987
1941
1978
2078
2179
2253
2263
2215
2141
2095
2109
2192
2317
2411
2427
2384
2304
2227
2208
2255
2326
2384
2374
2283
2122
1953
1851
1839
1893
1966
1997
1943
1811
1667
1569
1535
1601
1681
1744
1733
1632
1477
1353
1301
1345
1449
1561
1610
1535
1424
1293
1221
1232
1309
1408
1487
1514
1465
1379
1314
1330
1427
1535
1616
1610
1503
1377
1269
1250
1331
1472
1600
1637
1598
1482
1372
1321
1350
1435
1535
1609
1603
1511
1409
1343
1363
1467
1600
1683
1682
1599
1453
1333
1301
1370
1502
1638
1687
1641
1531
1423
1367
1395
1487
1595
1650
1615
1495
1355
1267
1280
1375
1507
1616
1648
1584
1478
1395
1392
1466
1594
1713
1767
1719
1591
1453
1383
1398
1488
1613
1702
1714
1649
1602
1621
1755
1968
2178
2298
2288
2165
1987
1838
1757
1763
1777
1754
1671
1517
1335
1215
1195
1313
1508
1714
1851
1883
1810
1697
1631
1633
1705
1795
1872
1871
1789
1677
1599
1601
1694
1801
1887
1925
1878
1778
1673
1636
1681
1781
1887
1937
1923
1840
1735
1680
1711
1822
1946
2025
2032
1953
1847
1783
1808
1904
2031
2143
2169
2105
1985
1889
1872
1953
2087
2190
2230
2203
2112
2006
1968
2015
2138
2275
2381
2388
2290
2167
2087
2094
2176
2287
2387
2439
2417
2331
2246
2226
2287
2400
2511
2553
2495
2357
2218
2135
2150
2230
2317
2370
2349
2240
2096
1982
1950
2033
2144
2224
2235
2178
2076
1959
1894
1909
1970
2059
2095
2045
1951
1856
1814
1840
1926
2032
2112
2109
2023
1904
1800
1761
1813
1914
2003
2038
1991
1902
1810
1808
1882
1994
2095
2122
2067
1968
1875
1838
1867
1955
2062
2128
2126
2037
1907
1817
1815
1893
2003
2101
2127
2081
1969
1870
1835
1872
1941
1985
1987
1933
1841
1757
1727
1763
1841
1930
1987
1975
1887
1777
1727
1761
1859
1978
2069
2093
1989
1845
1747
1751
1869
2014
2123
2146
2079
1934
1802
1755
1807
1904
2033
2141
2167
2135
2081
2066
2121
2203
2297
2347
2300
2173
2025
1895
1808
1790
1819
1856
1850
1791
1699
1626
1637
1745
1901
2041
2146
2160
2096
1989
1901
1859
1883
1952
2046
2099
2078
2001
1907
1852
1887
1998
2143
2209
2151
2027
1903
1851
1877
1984
2129
2243
2228
2112
1954
1851
1846
1951
2121
2243
2257
2183
2077
1947
1904
1980
2118
2241
2301
2255
2145
2037
1997
2079
2201
2321
2387
2355
2255
2158
2112
2137
2205
2289
2403
2479
2432
2353
2270
2239
2287
2386
2502
2545
2470
2320
2191
2145
2177
2265
2362
2426
2421
2325
2192
2117
2106
2166
2243
2291
2256
2122
1953
1858
1872
1973
2089
2154
2135
2029
1923
1859
1855
1910
2007
2113
2154
2098
1962
1833
1778
1851
1990
2139
2246
2261
2181
2043
1926
1868
1879
1967
2065
2115
2087
1979
1861
1839
1931
2064
2173
2198
2134
2007
1855
1735
1698
1761
1881
1983
2011
1966
1879
1808
1814
1901
1988
2043
2033
1936
1827
1770
1785
1873
1993
2067
2059
1981
1894
1814
1785
1821
1922
2020
2086
2063
1962
1846
1764
1767
1822
1889
1936
1940
1904
1837
1777
1775
1843
1938
2023
2063
1998
1877
1775
1751
1839
1981
2115
2203
2224
2177
2115
2085
2128
2220
2295
2323
2278
2142
1936
1743
1639
1647
1711
1764
1786
1733
1648
1579
1589
1701
1871
2014
2096
2079
1983
1855
1771
1783
1872
1981
2080
2101
2022
1920
1859
1851
1897
1987
2089
2121
2066
1961
1866
1838
1878
1975
2097
2188
2198
2115
1999
1923
1921
1995
2111
2198
2222
2157
2035
1936
1898
1947
2064
2169
2231
2224
2140
2061
2038
2082
2190
2295
2353
2333
2241
2155
2118
2163
2279
2387
2459
2465
2393
2288
2203
2192
2261
2365
2446
2459
2399
2304
2225
2203
2256
2353
2475
2528
2480
2352
2203
2096
2067
2106
2189
2251
2243
2154
2034
1953
1939
2003
2101
2185
2199
2128
2002
1893
1826
1843
1927
2013
2074
2065
1975
1863
1807
1843
1941
2033
2089
2064
1980
1875
1801
1789
1856
1955
2041
2064
2000
1904
1823
1825
1906
2021
2124
2158
2099
1974
1842
1777
1808
1907
2015
2097
2089
1996
1876
1792
1780
1853
1935
2000
2004
1938
1833
1738
1719
1786
1898
1995
2037
1990
1885
1782
1731
1760
1840
1934
1998
1989
1915
1808
1718
1703
1777
1901
1990
2001
1925
1815
1743
1738
1816
1914
1998
2015
1963
1856
1754
1710
1766
1879
2031
2177
2236
2177
2078
1982
1948
1978
2038
2094
2062
1906
1712
1526
1427
1467
1616
1791
1917
1951
1901
1808
1764
1800
1899
2005
2066
2035
1927
1793
1702
1703
1799
1936
2038
2068
1999
1878
1778
1761
1829
1941
2042
2091
2032
1901
1778
1731
1793
1919
2063
2142
2147
2076
1968
1890
1894
1968
2064
2135
2158
2095
1987
1904
1897
1963
2068
2170
2217
2187
2093
1986
1953
2006
2135
2262
2340
2331
2246
2131
2059
2060
2139
2253
2368
2430
2391
2305
2211
2178
2224
2320
2407
2437
2394
2288
2167
2112
2150
2245
2352
2409
2375
2261
2129
2031
2019
2090
2176
2233
2224
2129
1986
1872
1834
1878
1974
2064
2081
2009
1878
1746
1690
1742
1861
2000
2107
2103
2007
1878
1776
1759
1836
1947
2059
2092
2015
1894
1795
1783
1864
1967
2054
2059
1984
1866
1762
1718
1758
1869
1980
2047
2027
1920
1779
1689
1712
1810
1949
2047
2042
1933
1791
1690
1695
1772
1872
1957
1980
1906
1787
1674
1637
1687
1782
1871
1914
1891
1799
1680
1615
1643
1748
1875
1959
1953
1867
1744
1652
1633
1680
1783
1875
1907
1856
1767
1693
1676
1719
1806
1897
1934
1905
1826
1743
1721
1808
1985
2191
2320
2327
2224
2064
1933
1881
1909
1962
1984
1931
1781
1598
1441
1397
1469
1621
1791
1909
1926
1856
1747
1680
1707
1794
1899
1966
1961
1875
1760
1678
1675
1758
1872
1967
1984
1921
1807
1713
1684
1744
1851
1951
1998
1956
1862
1760
1727
1777
1883
1985
2045
2006
1903
1806
1759
1791
1893
2004
2110
2134
2087
1975
1887
1866
1931
2047
2167
2237
2228
2140
2041
2001
2047
2151
2256
2327
2323
2241
2134
2073
2093
2173
2271
2351
2384
2352
2283
2206
2182
2225
2307
2383
2412
2349
2230
2116
2065
2103
2187
2277
2319
2263
2138
1998
1906
1913
1998
2102
2174
2160
2047
1904
1792
1762
1835
1945
2044
2071
2000
1881
1773
1735
1785
1889
1982
2035
2005
1904
1783
1712
1719
1805
1899
1968
1968
1891
1774
1690
1697
1778
1893
2000
2032
1968
1847
1739
1694
1727
1813
1904
1951
1936
1852
1745
1677
1687
1778
1897
1987
2001
1919
1803
1712
1694
1745
1843
1920
1939
1879
1766
1648
1599
1645
1734
1839
1891
1865
1763
1648
1583
1603
1699
1809
1891
1895
1813
1696
1600
1578
1633
1731
1827
1872
1831
1713
1577
1510
1559
1677
1791
1834
1823
1803
1839
1947
2128
2320
2476
2557
2535
2407
2229
2047
1926
1885
1862
1821
1743
1610
1461
1368
1379
1503
1680
1838
1917
1893
1787
1663
1600
1636
1737
1843
1918
1925
1846
1728
1644
1637
1707
1803
1891
1921
1884
1798
1723
1717
1792
1902
1989
2034
2007
1905
1787
1717
1755
1861
1982
2075
2083
2013
1905
1827
1830
1915
2025
2114
2145
2098
1995
1902
1872
1938
2065
2179
2239
2211
2128
2037
2005
2064
2177
2295
2367
2369
2303
2213
2159
2176
2270
2382
2478
2493
2426
2310
2207
2181
2231
2320
2411
2439
2384
2261
2133
2058
2075
2149
2225
2267
2224
2101
1953
1852
1833
1907
2018
2125
2138
2061
1937
1839
1814
1869
1965
2055
2094
2036
1925
1794
1744
1782
1871
1949
1984
1939
1823
1703
1641
1661
1746
1850
1927
1935
1866
1744
1648
1632
1702
1814
1919
1955
1909
1808
1703
1655
1683
1775
1879
1951
1943
1869
1761
1701
1717
1798
1898
1983
1995
1909
1776
1648
1600
1638
1729
1813
1861
1834
1734
1633
1582
1609
1693
1779
1822
1805
1713
1613
1560
1591
1687
1802
1884
1873
1776
1654
1564
1561
1645
1767
1877
1923
1872
1751
1636
1571
1605
1723
1853
1936
1956
1937
1924
1986
2146
2347
2517
2627
2629
2511
2326
2150
2030
1967
1930
1873
1777
1619
1458
1360
1372
1482
1652
1812
1904
1899
1807
1685
1617
1638
1741
1867
1953
1955
1871
1749
1664
1655
1723
1819
1894
1913
1856
1759
1679
1664
1733
1843
1941
1984
1963
1885
1807
1770
1804
1896
2001
2078
2047
1921
1747
1622
1583
1616
1681
1738
1722
1628
1502
1417
1407
1488
1607
1724
1791
1771
1675
1582
1533
1584
1679
1791
1889
1923
1873
1786
1722
1744
1842
1968
2067
2107
2059
1937
1818
1775
1827
1943
2067
2119
2071
1951
1815
1728
1731
1805
1879
1933
1919
1837
1728
1648
1637
1701
1798
1870
1879
1795
1678
1570
1530
1581
1665
1749
1789
1744
1622
1488
1422
1450
1535
1650
1727
1729
1651
1535
1467
1472
1535
1648
1712
1719
1663
1570
1474
1452
1516
1647
1781
1858
1838
1728
1609
1535
1581
1669
1778
1855
1855
1774
1664
1589
1591
1661
1749
1808
1810
1744
1633
1535
1535
1607
1710
1806
1839
1792
1683
1570
1503
1520
1617
1733
1808
1797
1712
1606
1535
1535
1627
1743
1833
1879
1842
1754
1673
1653
1712
1815
1896
1905
1829
1691
1569
1505
1557
1680
1814
1901
1895
1825
1765
1781
1907
2095
2275
2391
2394
2286
2119
1954
1872
1874
1915
1934
1894
1781
1633
1517
1505
1602
1775
1936
2028
2016
1921
1801
1719
1719
1799
1900
1968
1968
1903
1803
1719
1703
1765
1867
1965
2000
1956
1851
1737
1694
1746
1888
2037
2126
2110
1999
1883
1820
1856
1968
2082
2147
2144
2055
1937
1871
1872
1957
2091
2194
2238
2192
2091
1985
1952
2010
2135
2274
2355
2360
2284
2187
2146
2195
2313
2435
2517
2518
2425
2304
2231
2242
2325
2435
2512
2524
2461
2349
2247
2224
2275
2373
2456
2494
2477
2389
2275
2192
2193
2288
2402
2471
2451
2351
2210
2112
2100
2167
2260
2322
2312
2223
2085
1962
1919
1973
2079
2167
2206
2158
2036
1901
1817
1813
1893
2000
2097
2097
2005
1879
1801
1808
1887
1990
2076
2073
1986
1865
1753
1719
1771
1869
1995
2094
2096
2006
1905
1863
1903
1990
2097
2145
2127
2038
1923
1842
1840
1919
2031
2123
2135
2068
1961
1877
1858
1918
2019
2112
2138
2068
1936
1810
1762
1796
1899
2002
2074
2042
1937
1817
1728
1742
1840
1953
2039
2067
1999
1894
1818
1812
1882
1989
2090
2114
2064
1950
1845
1806
1857
1965
2063
2109
2064
1936
1810
1760
1831
1996
2208
2399
2490
2463
2366
2261
2209
2215
2258
2279
2211
2036
1787
1552
1407
1414
1526
1680
1803
1853
1819
1751
1744
1813
1936
2057
2134
2141
2047
1918
1807
1774
1828
1930
2029
2065
1995
1882
1802
1792
1841
1937
2035
2107
2105
2013
1915
1858
1895
1983
2083
2151
2160
2090
1984
1913
1920
2011
2135
2240
2288
2246
2131
2021
1981
2027
2112
2193
2241
2209
2117
2030
2005
2087
2235
2396
2473
2451
2352
2229
2133
2122
2201
2329
2452
2501
2445
2345
2262
2234
2290
2404
2511
2559
2541
2433
2306
2215
2185
2242
2326
2398
2398
2291
2170
2053
2003
2064
2171
2260
2278
2213
2106
1999
1936
1946
2006
2069
2092
2044
1947
1843
1802
1814
1904
2012
2078
2045
1957
1845
1778
1792
1862
1936
1994
2005
1959
1872
1767
1740
1827
1962
2089
2148
2098
1967
1855
1799
1819
1891
2000
2091
2121
2037
1908
1810
1796
1840
1886
1914
1904
1856
1767
1680
1692
1795
1923
2032
2074
2003
1881
1776
1726
1767
1866
1968
2027
1987
1875
1739
1656
1702
1823
1955
2064
2083
1993
1839
1703
1691
1776
1904
1998
2026
1984
1875
1779
1726
1757
1860
1968
2010
1961
1856
1744
1677
1692
1793
1939
2083
2150
2106
2034
2023
2069
2150
2240
2299
2267
2159
1986
1830
1721
1687
1718
1774
1782
1719
1595
1474
1445
1528
1691
1867
1997
2039
1983
1861
1763
1719
1761
1867
1968
2005
1951
1838
1743
1713
1790
1921
2053
2129
2126
2031
1914
1845
1864
1947
2068
2169
2179
2097
1963
1855
1834
1915
2035
2147
2169
2113
1984
1879
1854
1924
2039
2148
2213
2214
2153
2079
2029
2046
2134
2222
2285
2283
2208
2112
2064
2093
2185
2297
2401
2431
2368
2256
2167
2153
2210
2315
2437
2507
2485
2390
2265
2174
2171
2247
2351
2421
2419
2335
2207
2107
2083
2141
2221
2265
2247
2165
2027
1903
1838
1856
1954
2070
2110
2032
1872
1705
1600
1584
1642
1701
1735
1745
1679
1567
1470
1443
1499
1604
1683
1694
1629
1521
1439
1424
1495
1622
1729
1769
1709
1581
1425
1359
1391
1501
1628
1718
1723
1643
1521
1431
1441
1530
1659
1775
1810
1743
1618
1513
1490
1559
1667
1769
1818
1789
1698
1598
1535
1584
1679
1786
1833
1823
1742
1644
1580
1596
1678
1776
1843
1842
1771
1664
1591
1600
1673
1776
1872
1906
1850
1734
1641
1600
1634
1740
1853
1922
1923
1826
1697
1613
1616
1715
1840
1936
1969
1917
1825
1775
1802
1918
2101
2277
2375
2370
2281
2172
2095
2075
2121
2176
2163
2039
1827
1606
1458
1440
1535
1694
1831
1919
1904
1837
1774
1778
1873
2000
2113
2155
2096
1965
1860
1825
1872
1984
2110
2174
2154
2047
1938
1882
1918
2007
2116
2181
2181
2112
2001
1914
1911
1983
2098
2192
2227
2176
2075
1968
1921
1967
2085
2211
2289
2285
2202
2099
2038
2064
2155
2262
2346
2368
2291
2190
2110
2117
2214
2345
2461
2510
2480
2386
2299
2278
2349
2468
2581
2643
2625
2523
2416
2359
2388
2495
2611
2681
2659
2545
2413
2313
2285
2337
2419
2489
2493
2412
2279
2149
2071
2064
2111
2154
2158
2087
1947
1799
1714
1725
1805
1892
1945
1920
1802
1661
1557
1535
1618
1713
1794
1813
1747
1635
1531
1519
1594
1705
1801
1836
1777
1655
1535
1478
1519
1629
1741
1819
1838
1766
1653
1571
1565
1628
1722
1795
1803
1732
1621
1531
1520
1607
1734
1851
1904
1868
1761
1637
1563
1593
1685
1793
1867
1861
1776
1661
1577
1559
1617
1703
1769
1776
1703
1587
1487
1469
1524
1637
1738
1784
1731
1619
1502
1450
1488
1600
1719
1793
1792
1715
1614
1532
1535
1614
1691
1730
1697
1610
1519
1466
1480
1567
1702
1854
1977
2031
2031
2007
2017
2083
2188
2284
2309
2235
2046
1811
1599
1469
1442
1486
1553
1585
1559
1498
1463
1493
1591
1694
1778
1802
1753
1651
1558
1521
1582
1680
1776
1817
1789
1691
1575
1512
1535
1639
1762
1854
1867
1812
1723
1659
1677
1771
1888
1979
2002
1943
1842
1735
1705
1762
1872
1989
2072
2065
1981
1873
1813
1835
1927
2041
2131
2160
2112
2021
1955
1970
2061
2179
2289
2332
2286
2191
2126
2132
2223
2351
2470
2538
2511
2413
2288
2209
2229
2320
2417
2491
2483
2399
2276
2187
2186
2264
2371
2458
2474
2393
2256
2123
2067
2102
2189
2277
2319
2276
2163
2035
1968
1982
2077
2171
2224
2192
2090
1966
1876
1879
1959
2064
2135
2137
2064
1945
1845
1809
1855
1950
2053
2095
2039
1935
1834
1792
1840
1947
2055
2113
2090
1968
1839
1761
1781
1874
1995
2087
2101
2021
1919
1838
1820
1883
1984
2081
2128
2097
1998
1904
1858
1895
1991
2096
2147
2117
2021
1904
1825
1834
1905
2007
2101
2106
2003
1862
1735
1707
1767
1889
1995
2035
2000
1904
1811
1776
1823
1931
2035
2112
2094
2001
1888
1808
1810
1891
1997
2085
2097
2023
1907
1808
1773
1808
1890
1970
2012
1997
1935
1887
1921
2076
2305
2559
2763
2833
2789
2677
2559
2495
2486
2489
2446
2296
2064
1799
1598
1515
1590
1745
1911
2009
2017
1946
1863
1831
1879
1974
2067
2115
2096
1997
1879
1808
1831
1920
2030
2107
2106
2023
1911
1838
1840
1929
2061
2161
2207
2159
2053
1936
1901
1951
2073
2193
2266
2251
2151
2031
1943
1957
2053
2196
2331
2384
2321
2213
2125
2114
2185
2303
2431
2496
2471
2381
2288
2250
2286
2374
2480
2549
2551
2479
2384
2346
2394
2507
2627
2701
2699
2623
2488
2395
2383
2453
2559
2641
2674
2624
2503
2386
2320
2333
2411
2496
2528
2480
2367
2254
2190
2203
2267
2329
2359
2326
2215
2102
2032
2039
2124
2222
2299
2290
2195
2064
1937
1895
1933
2025
2118
2147
2094
1967
1840
1776
1797
1883
1995
2058
2037
1938
1823
1744
1745
1826
1933
2000
2000
1930
1836
1757
1750
1827
1938
2032
2069
2032
1936
1838
1793
1838
1935
2056
2131
2128
2027
1895
1808
1808
1885
1985
2064
2071
1993
1871
1755
1723
1773
1862
1940
1968
1917
1806
1699
1660
1699
1803
1902
1951
1919
1808
1681
1605
1613
1690
1806
1895
1931
1887
1807
1737
1727
1788
1882
1975
1995
1923
1787
1648
1582
1615
1739
1879
1991
2035
2043
2061
2127
2261
2432
2578
2659
2644
2513
2317
2118
1982
1926
1893
1867
1812
1721
1623
1584
1602
1697
1827
1936
2011
2011
1936
1821
1743
1745
1823
1915
1978
1982
1904
1783
1696
1679
1748
1867
1967
1999
1937
1840
1757
1747
1827
1955
2086
2161
2143
2033
1901
1796
1776
1859
1984
2113
2174
2137
2046
1970
1970
2055
2160
2241
2272
2225
2127
2033
2015
2081
2191
2295
2363
2363
2289
2191
2128
2157
2256
2374
2471
2506
2445
2346
2272
2283
2368
2477
2559
2582
2512
2391
2286
2246
2292
2390
2480
2525
2495
2390
2275
2201
2221
2306
2404
2454
2423
2315
2163
2039
2000
2063
2157
2224
2225
2146
2011
1902
1849
1891
1986
2095
2138
2106
2006
1910
1847
1873
1965
2058
2121
2092
1978
1840
1744
1749
1833
1941
2021
2033
1968
1867
1779
1759
1824
1929
2021
2078
2042
1947
1846
1801
1849
1959
2070
2131
2106
1995
1859
1759
1761
1862
1991
2101
2126
2042
1903
1776
1729
1790
1912
2029
2094
2058
1942
1807
1725
1739
1834
1936
2007
2000
1905
1783
1693
1684
1745
1843
1927
1945
1894
1806
1731
1728
1794
1911
2028
2083
2039
1933
1808
1739
1766
1859
1961
2019
1980
1867
1739
1675
1707
1818
1961
2094
2139
2110
2070
2073
2147
2266
2411
2500
2496
2382
2192
1984
1833
1763
1755
1776
1783
1746
1657
1566
1534
1607
1762
1922
2042
2070
1993
1862
1748
1727
1791
1903
2010
2065
2023
1915
1807
1758
1811
1920
2018
2091
2084
1998
1883
1813
1827
1917
2035
2121
2124
2047
1932
1847
1835
1911
2033
2145
2190
2149
2062
1963
1918
1947
2043
2135
2175
2145
2061
1965
1935
1987
2103
2221
2303
2311
2238
2136
2064
2065
2156
2289
2403
2438
2387
2294
2213
2183
2241
2341
2451
2525
2512
2416
2291
2203
2199
2275
2369
2426
2412
2313
2181
2086
2068
2119
2210
2289
2304
2231
2115
1995
1939
1968
2062
2160
2203
2160
2053
1928
1859
1870
1926
2020
2094
2083
1983
1840
1734
1728
1818
1946
2059
2109
2064
1951
1837
1781
1792
1859
1943
1993
1970
1894
1797
1743
1774
1867
1962
2010
2000
1926
1823
1751
1769
1867
1983
2063
2064
1983
1861
1771
1764
1840
1927
2017
2064
2026
1923
1811
1771
1826
1947
2058
2103
2077
1950
1778
1662
1675
1775
1901
1997
2025
1962
1835
1739
1727
1791
1904
2013
2064
2001
1876
1763
1708
1731
1821
1936
2013
2009
1923
1797
1717
1735
1844
1979
2094
2127
2047
1927
1821
1802
1870
1989
2128
2224
2221
2151
2071
2039
2096
2183
2271
2309
2253
2096
1893
1724
1649
1659
1711
1763
1776
1728
1639
1585
1615
1727
1878
2023
2111
2093
1978
1856
1793
1829
1914
2007
2054
2000
1894
1787
1738
1777
1894
2022
2127
2141
2063
1929
1810
1795
1886
2005
2107
2128
2080
1984
1907
1886
1952
2066
2179
2240
2208
2087
1951
1893
1935
2066
2211
2304
2301
2198
2084
1993
1998
2093
2195
2299
2343
2307
2220
2123
2080
2131
2253
2387
2482
2506
2448
2356
2302
2320
2416
2530
2619
2627
2545
2419
2308
2284
2352
2453
2542
2559
2501
2371
2237
2160
2172
2240
2338
2405
2382
2266
2134
2041
2034
2107
2203
2275
2269
2193
2078
1984
1968
2032
2106
2163
2181
2112
1993
1887
1847
1903
2003
2100
2146
2112
1996
1879
1813
1839
1929
2034
2109
2097
1997
1869
1781
1767
1833
1926
2010
2031
1971
1881
1806
1776
1819
1926
2033
2090
2065
1975
1891
1859
1919
2030
2137
2188
2150
2043
1920
1857
1875
1961
2082
2167
2179
2109
1973
1856
1803
1839
1915
2001
2046
2014
1909
1797
1734
1755
1854
1962
2041
2045
1953
1834
1749
1757
1856
1968
2057
2081
2016
1917
1836
1822
1876
1967
2046
2074
2003
1882
1774
1730
1780
1901
2039
2158
2202
2189
2160
2163
2227
2334
2429
2495
2485
2381
2207
2032
1922
1879
1874
1883
1869
1804
1696
1617
1622
1722
1875
2023
2109
2095
1990
1866
1789
1799
1885
1986
2064
2066
1981
1870
1791
1794
1873
1985
2074
2097
2027
1920
1835
1821
1878
1959
2047
2118
2126
2058
1970
1935
1968
2067
2173
2239
2222
2125
1991
1900
1904
2001
2146
2269
2324
2288
2197
2102
2065
2119
2235
2349
2416
2393
2310
2215
2161
2195
2301
2416
2505
2512
2448
2367
2305
2306
2373
2479
2579
2627
2595
2496
2398
2369
2416
2486
2555
2559
2512
2394
2266
2191
2201
2273
2363
2411
2396
2314
2201
2101
2077
2131
2218
2285
2282
2192
2055
1927
1878
1917
2010
2105
2137
2084
1959
1831
1774
1804
1903
2007
2078
2060
1945
1819
1728
1727
1802
1904
1970
1988
1939
1830
1728
1701
1757
1856
1957
2009
1984
1894
1788
1722
1747
1853
1968
2046
2039
1954
1840
1772
1777
1867
1977
2033
2007
1897
1773
1711
1729
1823
1949
2061
2095
2033
1902
1772
1711
1730
1810
1901
1940
1917
1814
1694
1613
1615
1697
1800
1890
1904
1841
1728
1631
1616
1692
1808
1914
1946
1903
1814
1729
1690
1718
1790
1860
1886
1867
1798
1731
1705
1760
1889
2078
2260
2387
2433
2413
2375
2367
2431
2512
2555
2512
2357
2108
1822
1626
1557
1590
1683
1776
1790
1725
1607
1558
1595
1717
1854
1950
1963
1883
1764
1666
1669
1753
1867
1963
1987
1947
1854
1749
1712
1770
1881
1999
2078
2067
1975
1873
1818
1833
1920
2031
2115
2114
2032
1920
1825
1805
1886
2021
2139
2197
2165
2064
1969
1937
1998
2128
2266
2349
2331
2224
2103
2031
2046
2145
2278
2375
2390
2320
2239
2183
2178
2253
2365
2460
2491
2436
2345
2254
2234
2291
2398
2505
2558
2515
2410
2285
2211
2225
2291
2381
2448
2443
2343
2207
2105
2083
2132
2214
2274
2276
2190
2047
1921
1870
1907
1986
2085
2121
2071
1938
1806
1723
1738
1814
1894
1936
1936
1887
1809
1746
1761
1824
1906
1983
1987
1911
1794
1680
1633
1677
1778
1885
1937
1910
1808
1698
1639
1662
1749
1856
1937
1943
1868
1755
1666
1663
1731
1838
1920
1943
1893
1786
1690
1676
1735
1837
1925
1968
1910
1777
1618
1535
1584
1706
1845
1935
1933
1825
1682
1599
1609
1700
1809
1895
1919
1845
1727
1618
1573
1601
1701
1805
1856
1811
1711
1600
1535
1577
1673
1789
1867
1865
1778
1669
1603
1609
1671
1743
1794
1796
1738
1649
1598
1627
1763
1963
2192
2385
2501
2512
2455
2430
2457
2513
2544
2503
2352
2101
1811
1589
1458
1444
1501
1597
1652
1633
1572
1520
1530
1616
1740
1854
1901
1850
1728
1591
1518
1535
1647
1759
1849
1861
1799
1712
1659
1682
1773
1883
1965
1978
1914
1808
1713
1698
1769
1876
1977
2018
1974
1882
1793
1754
1806
1905
2019
2091
2064
1953
1840
1778
1810
1931
2081
2192
2223
2155
2033
1936
1931
2010
2139
2256
2299
2255
2157
2067
2039
2112
2266
2421
2511
2507
2411
2287
2213
2224
2304
2399
2466
2468
2385
2267
2166
2151
2207
2304
2382
2385
2308
2170
2035
1982
2007
2091
2162
2191
2134
2015
1894
1823
1835
1904
1990
2069
2071
1972
1842
1737
1713
1766
1856
1924
1920
1855
1747
1653
1619
1664
1751
1842
1875
1830
1702
1535
1431
1398
1426
1471
1483
1413
1278
1121
1006
982
1058
1172
1267
1285
1200
1070
953
931
1031
1171
1291
1331
1294
1191
1091
1053
1102
1215
1318
1370
1346
1242
1105
1023
1035
1116
1216
1296
1305
1230
1104
995
974
1044
1154
1262
1309
1270
1172
1072
1023
1071
1180
1301
1379
1360
1253
1125
1042
1057
1159
1286
1395
1429
1392
1295
1200
1167
1209
1298
1394
1437
1415
1371
1345
1407
1584
1813
2015
2122
2096
1967
1802
1663
1586
1571
1574
1535
1429
1277
1118
1018
1045
1183
1376
1552
1630
1601
1501
1405
1361
1426
1535
1642
1690
1656
1555
1438
1388
1408
1501
1617
1711
1729
1680
1586
1503
1488
1562
1681
1805
1856
1823
1725
1623
1585
1631
1738
1847
1929
1935
1858
1771
1712
1747
1856
1983
2083
2096
2000
1867
1763
1751
1835
1954
2067
2121
2109
2022
1943
1931
2007
2138
2255
2315
2301
2229
2148
2113
2154
2261
2384
2469
2485
2414
2301
2211
2192
2240
2338
2430
2449
2377
2239
2108
2041
2083
2179
2285
2323
2281
2160
2037
1975
1990
2043
2128
2192
2169
2079
1954
1867
1861
1932
2034
2112
2117
2039
1891
1749
1691
1727
1813
1936
1984
1969
1905
1831
1781
1790
1865
1966
2042
2062
1977
1869
1777
1759
1807
1911
2018
2069
2009
1890
1805
1793
1870
1987
2102
2161
2128
2009
1878
1799
1808
1899
2000
2081
2096
2022
1935
1855
1825
1887
2001
2122
2170
2112
1955
1791
1723
1763
1861
1961
2026
2032
1963
1861
1802
1808
1883
1969
2026
2022
1963
1856
1771
1765
1843
1955
2064
2101
2032
1911
1822
1830
1919
2027
2112
2128
2075
1951
1839
1776
1777
1867
1997
2112
2142
2112
2073
2083
2157
2281
2368
2399
2359
2240
2079
1935
1856
1833
1840
1855
1821
1735
1621
1553
1580
1696
1856
2027
2150
2176
2109
2009
1950
1975
2062
2148
2205
2192
2109
2014
1953
1955
2018
2099
2157
2157
2074
1941
1825
1789
1840
1948
2079
2169
2182
2096
1959
1851
1846
1945
2075
2160
2164
2109
2004
1920
1918
2023
2178
2289
2323
2290
2193
2096
2055
2096
2210
2350
2434
2436
2368
2267
2206
2221
2286
2378
2483
2544
2513
2431
2342
2313
2352
2434
2539
2587
2535
2435
2348
2315
2350
2419
2498
2540
2503
2399
2256
2157
2145
2245
2369
2416
2355
2240
2133
2067
2067
2145
2238
2311
2325
2253
2112
1965
1882
1911
2000
2105
2145
2112
2032
1946
1884
1914
2014
2112
2170
2151
2035
1877
1760
1726
1808
1950
2078
2128
2066
1951
1877
1874
1934
2027
2125
2156
2065
1941
1853
1841
1910
2029
2151
2204
2183
2091
1953
1846
1802
1855
1968
2085
2112
2044
1939
1861
1845
1899
1997
2105
2155
2127
2047
1915
1802
1779
1854
1962
2032
2005
1893
1763
1685
1714
1839
1998
2115
2135
2079
1974
1894
1862
1901
1984
2072
2113
2070
1983
1876
1814
1825
1891
1987
2064
2058
1981
1898
1846
1869
1967
2096
2192
2214
2169
2125
2117
2145
2211
2277
2318
2322
2253
2096
1920
1785
1713
1723
1769
1797
1797
1744
1677
1648
1709
1837
1994
2131
2187
2131
2001
1891
1856
1910
2000
2096
2135
2094
1984
1894
1856
1882
1966
2067
2142
2145
2064
1971
1921
1925
2001
2102
2191
2201
2113
1991
1903
1907
1990
2119
2221
2245
2189
2079
1984
1962
2031
2160
2281
2345
2319
2218
2103
2032
2067
2170
2283
2363
2379
2305
2199
2132
2165
2278
2432
2553
2583
2527
2418
2302
2260
2317
2425
2542
2608
2559
2464
2338
2258
2261
2343
2445
2501
2489
2393
2288
2213
2192
2244
2331
2395
2388
2301
2161
2032
1975
2009
2106
2197
2234
2192
2089
1968
1907
1921
2000
2095
2151
2144
2061
1943
1851
1839
1898
1983
2058
2064
2000
1905
1819
1796
1853
1957
2054
2096
2059
1941
1811
1731
1758
1863
1993
2082
2091
2015
1906
1822
1814
1873
1963
2033
2070
2023
1931
1843
1823
1873
1967
2053
2091
2025
1907
1792
1741
1765
1859
1969
2041
2017
1919
1793
1703
1698
1776
1878
1962
1978
1909
1802
1712
1692
1759
1875
1985
2020
1970
1866
1761
1712
1741
1840
1948
2019
2017
1941
1843
1771
1735
1757
1799
1831
1807
1723
1616
1535
1523
1599
1728
1870
1979
1994
1899
1762
1664
1653
1712
1776
1797
1715
1530
1313
1131
1055
1109
1251
1402
1491
1488
1421
1360
1371
1451
1570
1671
1712
1680
1577
1462
1424
1474
1584
1691
1756
1739
1646
1525
1449
1456
1535
1648
1719
1739
1682
1593
1505
1489
1553
1634
1718
1775
1767
1712
1647
1637
1706
1822
1925
1996
1991
1911
1791
1707
1712
1790
1903
1985
2005
1948
1866
1807
1811
1903
2023
2142
2202
2177
2090
1993
1968
2028
2155
2287
2367
2366
2295
2194
2128
2143
2225
2327
2405
2409
2334
2230
2145
2108
2143
2219
2305
2363
2325
2222
2103
2038
2064
2141
2223
2261
2225
2112
1966
1877
1876
1944
2028
2079
2065
1990
1879
1791
1778
1853
1962
2055
2083
2028
1921
1808
1754
1776
1857
1950
1995
1968
1875
1776
1728
1755
1841
1939
2025
2039
1963
1846
1744
1735
1810
1920
2001
2021
1953
1835
1730
1696
1756
1886
1991
2063
2033
1936
1827
1774
1797
1886
1981
2043
2030
1930
1807
1711
1707
1791
1904
1987
1995
1933
1823
1723
1697
1750
1850
1942
1985
1949
1847
1746
1707
1745
1856
1973
2031
2016
1935
1840
1787
1799
1879
1990
2074
2086
2000
1851
1714
1680
1747
1869
1989
2086
2119
2116
2115
2174
2296
2443
2559
2655
2624
2495
2319
2154
2034
1981
1950
1927
1871
1776
1668
1603
1617
1728
1857
1981
2054
2032
1938
1841
1808
1846
1935
2019
2087
2079
1966
1863
1783
1776
1844
1942
2025
2033
1982
1879
1811
1827
1909
2031
2147
2207
2198
2113
2000
1936
1955
2032
2142
2227
2247
2185
2096
2014
2019
2109
2219
2304
2320
2255
2144
2058
2061
2144
2272
2384
2443
2426
2347
2250
2202
2238
2352
2481
2589
2602
2517
2399
2314
2313
2398
2519
2630
2652
2589
2490
2407
2385
2437
2525
2609
2628
2559
2439
2293
2214
2240
2327
2414
2448
2406
2279
2144
2067
2091
2178
2275
2341
2326
2229
2094
1984
1958
2007
2098
2172
2191
2123
1989
1869
1815
1856
1954
2057
2112
2095
1990
1871
1799
1808
1885
1982
2038
2021
1936
1822
1749
1759
1851
1968
2069
2098
2057
1942
1845
1804
1828
1920
2024
2080
2039
1941
1836
1774
1797
1888
1989
2064
2064
1980
1869
1783
1769
1824
1913
1984
1993
1919
1789
1671
1639
1701
1805
1899
1944
1913
1808
1701
1648
1680
1787
1901
1968
1963
1877
1759
1676
1680
1758
1863
1950
1981
1933
1831
1740
1701
1735
1821
1895
1916
1873
1792
1721
1707
1791
1970
2197
2397
2523
2555
2515
2465
2461
2505
2546
2544
2451
2255
1986
1735
1575
1531
1594
1700
1797
1826
1794
1741
1719
1757
1854
1947
2007
2013
1942
1840
1776
1783
1857
1951
2032
2070
2025
1927
1829
1790
1840
1938
2045
2115
2107
2017
1920
1871
1907
1998
2105
2176
2181
2109
1999
1935
1943
2032
2144
2239
2262
2205
2110
2031
2029
2111
2229
2337
2386
2349
2245
2136
2089
2128
2235
2352
2438
2451
2391
2309
2265
2303
2400
2529
2638
2670
2603
2501
2403
2387
2448
2542
2635
2671
2618
2489
2368
2306
2329
2416
2509
2559
2526
2418
2290
2202
2193
2260
2349
2403
2391
2294
2174
2061
2012
2056
2146
2221
2243
2192
2084
1967
1904
1915
1968
2035
2115
2131
2065
1949
1881
1892
1963
2045
2111
2102
2023
1920
1833
1815
1886
1983
2071
2090
2025
1922
1829
1801
1860
1968
2069
2119
2081
1968
1838
1749
1758
1861
1986
2090
2097
2015
1904
1809
1793
1865
1991
2110
2143
2094
1980
1867
1808
1831
1904
1978
2007
1962
1843
1723
1666
1693
1790
1910
2000
2010
1936
1824
1737
1726
1787
1887
1971
2000
1946
1829
1728
1696
1751
1872
1986
2043
2000
1872
1733
1667
1712
1827
1962
2082
2133
2129
2115
2143
2237
2352
2463
2530
2512
2389
2204
2015
1887
1835
1841
1885
1906
1887
1822
1755
1738
1798
1917
2042
2117
2105
1993
1855
1766
1778
1869
1990
2096
2114
2038
1923
1811
1777
1835
1952
2071
2128
2094
1980
1867
1808
1840
1952
2094
2191
2189
2099
1983
1918
1927
2002
2112
2203
2225
2177
2067
1957
1936
1983
2093
2207
2272
2261
2194
2112
2079
2118
2219
2333
2407
2409
2335
2242
2177
2197
2294
2425
2534
2559
2505
2389
2294
2277
2347
2457
2559
2599
2533
2407
2283
2222
2240
2345
2471
2540
2487
2366
2228
2154
2160
2229
2301
2350
2341
2246
2105
1975
1943
2007
2133
2240
2288
2251
2143
2017
1936
1950
2022
2116
2158
2125
2023
1904
1817
1809
1872
1962
2033
2046
1982
1872
1776
1732
1791
1902
2004
2028
1998
1902
1796
1758
1795
1885
1979
2062
2066
1991
1906
1855
1862
1930
2002
2063
2038
1953
1835
1731
1728
1821
1954
2073
2106
2054
1936
1813
1743
1770
1851
1925
1969
1949
1852
1737
1664
1682
1772
1872
1936
1930
1840
1731
1657
1648
1728
1840
1933
1960
1899
1775
1650
1584
1625
1742
1862
1920
1902
1802
1690
1639
1666
1755
1855
1927
1919
1841
1739
1682
1724
1846
2017
2183
2284
2288
2195
2075
1998
1987
2023
2065
2035
1907
1678
1454
1319
1286
1374
1527
1671
1743
1735
1682
1648
1671
1747
1851
1936
1963
1920
1833
1738
1696
1745
1859
1968
2001
1967
1845
1728
1685
1727
1831
1929
1984
1959
1865
1754
1702
1734
1843
1969
2075
2111
2057
1954
1859
1830
1854
1927
2023
2106
2110
2017
1918
1856
1872
1965
2081
2151
2135
2041
1941
1889
1929
2031
2170
2303
2364
2334
2247
2164
2149
2218
2330
2421
2464
2427
2335
2239
2205
2243
2320
2407
2468
2448
2354
2227
2145
2139
2193
2283
2351
2348
2256
2128
2011
1973
2007
2109
2197
2234
2175
2032
1894
1840
1891
2000
2114
2161
2128
2007
1872
1767
1743
1828
1950
2046
2072
2009
1902
1801
1773
1806
1871
1936
1981
1975
1914
1852
1836
1879
1970
2047
2079
2039
1950
1840
1781
1805
1891
1998
2083
2095
2005
1878
1776
1751
1808
1906
2007
2065
2033
1938
1842
1781
1796
1872
1968
2042
2055
1969
1843
1744
1729
1787
1875
1949
1968
1920
1808
1711
1680
1722
1843
1973
2029
1986
1872
1746
1689
1737
1878
2032
2112
2071
1936
1776
1680
1677
1776
1925
2032
2060
1984
1872
1776
1755
1811
1918
2003
2042
2011
1946
1910
1951
2095
2270
2430
2501
2469
2335
2160
2027
1968
1983
2025
2011
1925
1770
1595
1471
1471
1577
1735
1891
1982
1968
1879
1793
1760
1808
1920
2043
2113
2096
2010
1913
1840
1843
1920
2010
2092
2083
1986
1863
1807
1840
1941
2071
2172
2199
2154
2056
1953
1918
1978
2098
2202
2250
2199
2087
1970
1923
1967
2068
2180
2260
2270
2192
2078
1989
1985
2071
2191
2293
2327
2278
2181
2101
2086
2155
2271
2396
2480
2466
2377
2295
2266
2325
2435
2545
2613
2590
2480
2356
2282
2291
2375
2482
2559
2592
2517
2401
2287
2235
2267
2351
2423
2448
2399
2291
2180
2110
2103
2155
2225
2289
2276
2177
2044
1948
1926
1978
2067
2144
2152
2081
1969
